Frequency (Hz),Amplitude
0.0,4.905935906360299
0.020066889632107024,4.926204569552984
0.04013377926421405,4.986437458195592
0.060200668896321065,5.084983136908103
0.0802675585284281,5.219297082723513
0.10033444816053512,5.386197698932142
0.12040133779264213,5.582137876162802
0.14046822742474915,5.803447142446664
0.1605351170568562,6.046519184077595
0.1806020066889632,6.307938610172703
0.20066889632107024,6.58455363451225
0.22073578595317725,6.873507109241202
0.24080267558528426,7.172239003110985
0.2608695652173913,7.47847140833627
0.2809364548494983,7.79018431020471
0.3010033444816054,8.105587670879087
0.3210702341137124,8.423093258502023
0.34113712374581934,8.74128814493076
0.3612040133779264,9.058910803010113
0.3812709030100334,9.374830123557459
0.4013377926421405,9.688027322288356
0.42140468227424743,9.997580524793126
0.4414715719063545,10.302651738077822
0.4615384615384615,10.602475896906379
0.4816053511705685,10.896351684928833
0.5016722408026756,11.183633857790673
0.5217391304347826,11.463726828457862
0.5418060200668896,11.7360793085429
0.5618729096989966,12.000179830769062
0.5819397993311036,12.255553005672867
0.6020066889632107,12.501756389881317
0.6220735785953176,12.738377863923388
0.6421404682274248,12.965033434872034
0.6622073578595318,13.181365393571038
0.6822742474916387,13.387040768197895
0.7023411371237458,13.581750025837717
0.7224080267558528,13.76520598194085
0.7424749163879598,13.937142884305535
0.7625418060200668,14.097315643820494
0.7826086956521738,14.245499188830133
0.802675585284281,14.381487923823
0.8227424749163879,14.505095276335311
0.8428093645484949,14.616153318624546
0.862876254180602,14.71451245289999
0.882943143812709,14.80004115077738
0.903010033444816,14.872625739218785
0.923076923076923,14.9321702265811
0.9431438127090299,14.97859616357075
0.963210702341137,15.011842534927272
0.983277591973244,15.031865678564571
1.0033444816053512,15.038639229713846
1.0234113712374582,15.032154088360011
1.0434782608695652,15.01241840896403
1.0635451505016722,14.979457612137578
1.0836120401337792,14.93331441860129
1.1036789297658862,14.874048906431382
1.1237458193979932,14.801738593300742
1.1438127090301002,14.716478546168254
1.1638795986622072,14.618381521685412
1.1839464882943145,14.507578141496124
1.2040133779264215,14.384217107630725
1.2240802675585283,14.24846546437011
1.2441471571906353,14.100508914319146
1.2642140468227423,13.94055219802312
1.2842809364548495,13.768819548343105
1.3043478260869565,13.585555233039564
1.3244147157190636,13.391024201679295
1.3444816053511706,13.185512856175658
1.3645484949832773,12.969329968113986
1.3846153846153846,12.742807770648785
1.4046822742474916,12.506303258360575
1.4247491638795986,12.260199735240644
1.4448160535117056,12.004908659184778
1.4648829431438126,11.740871841321857
1.4849498327759196,11.468564070528332
1.5050167224080266,11.188496247976767
1.5250836120401337,10.901219133956026
1.5451505016722407,10.607327829896482
1.5652173913043477,10.307467142868955
1.5852842809364547,10.002338007924367
1.605351170568562,9.692705175176792
1.625418060200669,9.379406402332682
1.6454849498327757,9.063363426742981
1.6655518394648827,8.745595018707387
1.6856187290969897,8.427232430082116
1.705685618729097,8.109537532684483
1.725752508361204,7.793923862243536
1.745819397993311,7.48198060244164
1.765886287625418,7.1754991944282756
1.7859531772575248,6.87650164668517
1.806020066889632,6.587268626591963
1.826086956521739,6.310363903470335
1.846153846153846,6.04864958410438
1.866220735785953,5.805283883547468
1.8862876254180598,5.583690299897471
1.9063545150501673,5.387485021883263
1.926421404682274,5.22035002711418
1.9464882943143813,5.085845083302532
1.966555183946488,4.987164710111695
1.9866220735785953,4.926865365779107
2.0066889632107023,4.9066080288098695
2.026755852842809,4.926971745327911
2.0468227424749164,4.987385113785502
2.0668896321070234,5.086194255541632
2.0869565217391304,5.220848843089684
2.1070234113712374,5.388159284690656
2.1270903010033444,5.584569496902268
2.1471571906354514,5.806400045792245
2.1672240802675584,6.050036326123813
2.1872909698996654,6.312055663627449
2.2073578595317724,6.589300091617644
2.2274247491638794,6.8789073275431845
2.2474916387959865,7.178313117634458
2.267558528428094,7.485236085040208
2.2876254180602005,7.797653345214066
2.3076923076923075,8.113772454111283
2.3277591973244145,8.432003124912082
2.3478260869565215,8.750930636114084
2.367892976588629,9.069291859135934
2.3879598662207355,9.385954222145264
2.408026755852843,9.699897576980817
2.4280936454849495,10.01019875435609
2.4481605351170566,10.316018513461122
2.468227424749164,10.616590572303437
2.4882943143812706,10.911212417306963
2.508361204013378,11.199237618247205
2.5284280936454846,11.480069407913875
2.548494983277592,11.753155319653809
2.568561872909699,12.01798270745796
2.5886287625418056,12.274075001339165
2.608695652173913,12.520988575072947
2.6287625418060196,12.758310124063817
2.648829431438127,12.985654468485047
2.668896321070234,13.20266271133554
2.688963210702341,13.40900069308117
2.709030100334448,13.604357694492343
2.7290969899665547,13.788445347502273
2.749163879598662,13.960996720690847
2.769230769230769,14.121765551600351
2.789297658862876,14.27052560272416
2.809364548494983,14.407070121851707
2.82943143812709,14.53121139064823
2.849498327759197,14.642780348013282
2.869565217391304,14.741626276996353
2.8896321070234112,14.827616545929263
2.9096989966555182,14.900636396030908
2.9297658862876252,14.96058876910209
2.9498327759197323,15.007394170104119
2.9698996655518393,15.040990560439736
2.9899665551839463,15.061333278661909
3.0100334448160533,15.068394986151572
3.0301003344481603,15.062165636053441
3.0501672240802673,15.042652464460168
3.0702341137123748,15.009880003509522
3.0903010033444813,14.96389011672417
3.1103678929765888,14.904742057598286
3.1304347826086953,14.832512553136741
3.1505016722408024,14.747295914801292
3.1705685618729094,14.649204180134493
3.1906354515050164,14.538367289240389
3.210702341137124,14.414933301327785
3.2307692307692304,14.279068657699316
3.250836120401338,14.130958498935673
3.270903010033445,13.970807045623209
3.2909698996655514,13.798838053860141
3.311036789297659,13.615295359017567
3.3311036789297654,13.420443523905803
3.351170568561873,13.214568610704053
3.3712374581939795,12.997979099869243
3.391304347826087,12.77100698389594
3.411371237458194,12.534009069428937
3.4314381270903005,12.287368528048784
3.451505016722408,12.031496744313703
3.471571906354515,11.766835519654967
3.491638795986622,11.493859702839082
3.511705685618729,11.213080332331135
3.531772575250836,10.925048393449185
3.551839464882943,10.630359314119715
3.5719063545150496,10.329658347681958
3.591973244147157,10.023647019693124
3.612040133779264,9.713090847766797
3.632107023411371,9.398828578000582
3.652173913043478,9.081783215873243
3.672240802675585,8.76297515837449
3.692307692307692,8.443537747995531
3.712374581939799,8.124735551507216
3.732441471571906,7.8079855897702295
3.752508361204013,7.494881565572048
3.7725752508361197,7.187220788457616
3.7926421404682276,6.887032883934577
3.8127090301003346,6.596608375116222
3.832775919732441,6.318523698830241
3.852842809364548,6.055657060810963
3.872909698996655,5.811186787758642
3.8929765886287626,5.5885608888876295
3.9130434782608696,5.391424415521567
3.933110367892976,5.2234917713182085
3.953177257525083,5.0883568976600895
3.9732441471571907,4.9892472829600765
3.9933110367892977,4.928747327983765
4.013377926421405,4.90853698746014
4.033444816053511,4.929202340818557
4.053511705685618,4.990166039922686
4.073578595317726,5.089756548454498
4.093645484949833,5.225397291513096
4.113712374581939,5.393867794850812
4.133779264214047,5.591580177007133
4.153846153846153,5.814825076232008
4.173913043478261,6.059961469734401
4.193979933110368,6.32354441851821
4.214046822742475,6.602397793490927
4.234113712374581,6.893644813088208
4.254180602006689,7.194709791342752
4.274247491638796,7.5033023760484125
4.294314381270903,7.8173926153778215
4.314381270903009,8.135182447140377
4.334448160535117,8.455077049048981
4.354515050167224,8.775657963134876
4.374581939799331,9.09565890843135
4.394648829431437,9.41394458447016
4.414715719063545,9.729492419970244
4.434782608695651,10.04137704165539
4.454849498327759,10.348757161254039
4.474916387959866,10.650864560847044
4.494983277591973,10.946994870435109
4.5150501672240795,11.236499860346328
4.535117056856188,11.51878100532147
4.555183946488294,11.79328411155231
4.575250836120401,12.059494829960483
4.595317725752508,12.316934907455256
4.615384615384615,12.565159052505045
4.635451505016722,12.803752312244525
4.655518394648829,13.032327875869836
4.6755852842809364,13.250525233675004
4.695652173913043,13.458008633183914
4.71571906354515,13.65446578383294
4.735785953177258,13.839606769913546
4.7558528428093645,14.013163138294615
4.775919732441471,14.174887133068417
4.795986622073578,14.32455105391493
4.816053511705686,14.46194671883374
4.8361204013377925,14.586885015096602
4.856187290969899,14.699195524946074
4.8762541806020065,14.798726214804491
4.896321070234113,14.885343178642684
4.916387959866221,14.958930427756048
4.936454849498328,15.019389720560273
4.956521739130435,15.066640427195782
4.976588628762541,15.100619424756486
4.996655518394649,15.121281019866018
5.016722408026756,15.128596896141136
5.036789297658863,15.122556084830467
5.056856187290969,15.103164957618972
5.076923076923077,15.070447241263158
5.096989966555184,15.024444054388487
5.117056856187291,14.965213967455345
5.137123745819398,14.892833087603472
5.157190635451505,14.807395170834615
5.177257525083611,14.709011764811832
5.197324414715719,14.597812386464733
5.217391304347826,14.473944739620572
5.237458193979933,14.337574979062698
5.257525083612039,14.188888028790341
5.277591973244148,14.028087963860122
5.297658862876254,13.855398467086985
5.317725752508361,13.671063374136239
5.337792642140468,13.475347323230531
5.357859531772575,13.268536528925292
5.377926421404682,13.050939703294409
5.397993311036789,12.822889152563551
5.418060200668896,12.584742082910571
5.438127090301003,12.336882156040494
5.458193979933109,12.079721343498708
5.478260869565218,11.81370213882231
5.498327759197324,11.539300198911063
5.518394648829431,11.257027500840485
5.538461538461538,10.967436118190623
5.558528428093646,10.671122742279483
5.578595317725752,10.3687340988578
5.598662207357859,10.060973440032887
5.618729096989966,9.74860832420979
5.638795986622073,9.432479932600504
5.65886287625418,9.11351420679114
5.678929765886288,8.792735122799352
5.698996655518394,8.471280433471268
5.719063545150501,8.150420196364871
5.739130434782608,7.831578330800294
5.759197324414716,7.51635727132075
5.7792642140468224,7.2065654378612765
5.799331103678929,6.904246628144785
5.8193979933110365,6.611709426637856
5.839464882943144,6.331553170938321
5.8595317725752505,6.066684806843352
5.879598662207358,5.820318130257118
5.8996655518394645,5.595943846446747
5.919732441471571,5.3972566135677535
5.9397993311036785,5.228025705198181
5.959866220735786,5.0919017578459105
5.9799331103678925,4.992165440852344
5.999999999999999,4.931444151192469
6.020066889632107,4.911444050754079
6.040133779264214,4.93275600427349
6.060200668896321,4.99478497309034
6.080267558528428,5.095822227556246
6.100334448160535,5.233240503216693
6.120401337792642,5.403762281945434
6.1404682274247495,5.603742701985435
6.160535117056856,5.829420057536209
6.180602006688963,6.07710810222641
6.200668896321069,6.3433245495039845
6.2207357859531776,6.624863412903423
6.240802675585284,6.918824564553888
6.260869565217391,7.222614306016449
6.280936454849498,7.5339284654665395
6.301003344481605,7.850726471434657
6.321070234113712,8.171202032022492
6.341137123745819,8.49375385148154
6.361204013377926,8.816958272943173
6.381270903010033,9.139544732349764
6.40133779264214,9.460374298745682
6.421404682274248,9.778421232111237
6.441471571906354,10.092757315155085
6.461538461538461,10.402538642857376
6.481605351170568,10.706994539202586
6.501672240802676,11.005418287028375
6.521739130434782,11.297159387786484
6.54180602006689,11.581617103811675
6.561872909698996,11.85823507129913
6.581939799331103,12.126496805054547
6.60200668896321,12.385921945150923
6.622073578595318,12.636063120670007
6.642140468227424,12.87650332691694
6.662207357859531,13.10685373026045
6.682274247491639,13.326751829520369
6.702341137123746,13.53585991504631
6.722408026755852,13.73386377672049
6.742474916387959,13.92047162043466
6.762541806020066,14.095413159447318
6.782608695652174,14.258438852684984
6.80267558528428,14.409319266725
6.822742474916388,14.547844542069893
6.842809364548494,14.673823947538793
6.862876254180601,14.787085509283077
6.882943143812709,14.887475703178024
6.903010033444816,14.974859201232594
6.9230769230769225,15.04911866426017
6.94314381270903,15.11015457442052
6.963210702341137,15.157885102421494
6.983277591973244,15.19224600519678
7.0033444816053505,15.213190550784377
7.023411371237458,15.220689467948175
7.0434782608695645,15.214730918833881
7.063545150501672,15.195320493653755
7.083612040133779,15.162481227070428
7.103678929765886,15.116253636617216
7.123745819397993,15.05669578416967
7.143812709030099,14.98388336218739
7.1638795986622075,14.897909807199094
7.183946488294314,14.798886443824633
7.204013377926421,14.686942663543869
7.224080267558528,14.56222614345789
7.2441471571906355,14.424903111477693
7.264214046822742,14.275158665756843
7.2842809364548495,14.113197157803844
7.304347826086956,13.939242650623175
7.324414715719063,13.753539465508897
7.34448160535117,13.556352833834154
7.364548494983278,13.34796967344555
7.384615384615384,13.128699513206021
7.404682274247491,12.898875593987563
7.424749163879598,12.65885618017775
7.444816053511706,12.40902612275978
7.464882943143812,12.149798723523594
7.48494983277592,11.881617960290493
7.505016722408026,11.604961145566666
7.525083612040134,11.320342106215962
7.545150501672239,11.028314990040347
7.565217391304348,10.72947882706741
7.585284280936455,10.424482999306095
7.605351170568561,10.114033802999492
7.625418060200669,9.798902321819995
7.645484949832775,9.479933867047459
7.665551839464882,9.158059279080357
7.685618729096991,8.834308418575867
7.705685618729096,8.509826195611268
7.725752508361204,8.185891474815579
7.74581939799331,7.863939125395302
7.765886287625418,7.545585312165722
7.785953177257525,7.232655777472657
7.806020066889631,6.927216243003991
7.826086956521739,6.6316030296518775
7.846153846153847,6.348450396596179
7.866220735785952,6.080708810133972
7.88628762541806,5.831645388126745
7.906354515050166,5.604814514855685
7.926421404682274,5.403984154643143
7.946488294314381,5.233003733899798
7.966555183946488,5.095605414903902
7.986622073578595,4.995144523151442
8.006688963210701,4.934306217079538
8.02675585284281,4.914827938827723
8.046822742474916,4.937299102044906
8.066889632107022,5.00108986938847
8.08695652173913,5.104428800535933
8.107023411371236,5.244607723236676
8.127090301003344,5.418260991841318
8.147157190635452,5.62165785799959
8.167224080267557,5.85095937774999
8.187290969899665,6.1024138877895036
8.207357859531772,6.3724861259216965
8.227424749163879,6.65792859303993
8.247491638795987,6.955809372853932
8.267558528428093,7.263510778715554
8.2876254180602,7.578710663849728
8.307692307692307,7.899354984566895
8.327759197324415,8.223627275072669
8.347826086956522,8.549918440459919
8.367892976588628,8.876798710275597
8.387959866220736,9.202992588369868
8.408026755852843,9.527357030103921
8.42809364548495,9.848862741976278
8.448160535117056,10.166578331935787
8.468227424749163,10.479656972925442
8.488294314381271,10.787325233386646
8.508361204013378,11.088873749197145
8.528428093645484,11.383649445567208
8.548494983277592,11.671049055555944
8.568561872909697,11.950513719169063
8.588628762541806,12.221524481085561
8.608695652173914,12.483598535004557
8.628762541806019,12.736286088272932
8.648829431438127,12.979167742110196
8.668896321070234,13.21185230082739
8.68896321070234,13.4339749384318
8.709030100334449,13.64519566339139
8.729096989966555,13.845198032535317
8.749163879598662,14.033688073464454
8.769230769230768,14.210393381759198
8.789297658862875,14.375062364968791
8.809364548494983,14.52746361006923
8.82943143812709,14.667385354968054
8.849498327759196,14.794635047864164
8.869565217391303,14.909038980961098
8.889632107023411,15.010441987283802
8.909698996655518,15.098707191242674
8.929765886287624,15.173715805192932
8.949832775919733,15.235366965605758
8.96989966555184,15.283577603647506
8.989966555183946,15.318282345991628
9.010033444816054,15.339433442596844
9.030100334448159,15.34700071900317
9.050167224080267,15.340971551447076
9.070234113712376,15.321350863800824
9.09030100334448,15.288161146017911
9.110367892976589,15.241442494435434
9.130434782608695,15.181252674962959
9.150501672240802,15.107667210895617
9.17056856187291,15.020779497845249
9.190635451505017,14.920700949110568
9.210702341137123,14.807561175728651
9.23076923076923,14.68150820649456
9.250836120401337,14.542708754435917
9.270903010033445,14.391348537624703
9.290969899665551,14.227632663845595
9.311036789297658,14.051786090576844
9.331103678929765,13.864054174044776
9.351170568561873,13.664703323872166
9.37123745819398,13.454021783157284
9.391304347826086,13.232320557823133
9.411371237458194,12.999934523921496
9.4314381270903,12.757223747455747
9.451505016722408,12.504575058434668
9.471571906354516,12.242403929569488
9.49163879598662,11.971156720619591
9.511705685618729,11.691313362280308
9.531772575250837,11.403390569154881
9.551839464882942,11.107945690280149
9.57190635451505,10.8055813284256
9.591973244147155,10.496950886462411
9.612040133779264,10.182765230846265
9.632107023411372,9.86380069862606
9.652173913043477,9.540908714537542
9.672240802675585,9.21502732634018
9.692307692307692,8.887195004650657
9.712374581939798,8.558567078670135
9.732441471571907,8.230435174543743
9.752508361204013,7.904249959975378
9.77257525083612,7.581647330469663
9.792642140468226,7.264477826506637
9.812709030100335,6.9548384401485555
9.832775919732441,6.655104909076956
9.852842809364548,6.367960934896108
9.872909698996656,6.096418353982157
9.89297658862876,5.8438191349809205
9.91304347826087,5.613806564904972
9.933110367892976,5.410250237112668
9.953177257525082,5.237109635586771
9.97324414715719,5.098227278558557
9.993311036789297,4.997057190763687
10.013377926421404,4.936357367889872
10.033444816053512,4.917899100360229
10.053511705685617,4.942258784755746
10.073578595317725,5.008747170988564
10.093645484949834,5.115496043536169
10.113712374581938,5.2596777615341495
10.133779264214047,5.437800311350653
10.153846153846153,5.646012699917336
10.17391304347826,5.880370177825101
10.193979933110368,6.137033350891474
10.214046822742475,6.412397426810056
10.234113712374581,6.703161639611449
10.254180602006688,7.006354261201008
10.274247491638796,7.319328345222118
10.294314381270903,7.639740444999507
10.31438127090301,7.965521047201302
10.334448160535118,8.29484238836473
10.354515050167223,8.62608700305942
10.37458193979933,8.957818767368158
10.394648829431437,9.28875719663478
10.414715719063544,9.61775516306359
10.434782608695652,9.943779876204063
10.454849498327757,10.265896815010105
10.474916387959865,10.58325624473718
10.494983277591974,10.895081951146729
10.515050167224079,11.200661851251635
10.535117056856187,11.499340178302955
10.555183946488295,11.790510980041596
10.5752508361204,12.073612708815542
10.595317725752508,12.348123717863071
10.615384615384615,12.613558509146579
10.635451505016722,12.869464604592125
10.65551839464883,13.115419934807926
10.675585284280936,13.351030657829389
10.695652173913043,13.575929335707151
10.71571906354515,13.789773409329053
10.735785953177256,13.992243922201292
10.755852842809364,14.183044452403893
10.775919732441471,14.3619002189114
10.795986622073578,14.528557334209841
10.816053511705684,14.682782179872145
10.836120401337793,14.824360885664673
10.856187290969899,14.953098895999316
10.876254180602006,15.068820610243659
