Frequency (Hz),Amplitude
0.0,0.9817577438121375
0.04,0.9816412043638204
0.08,0.9812920206237127
0.12,0.9807114956236261
0.16,0.9799017984661341
0.19999999999999998,0.978865960370518
0.24,0.9776078690804547
0.27999999999999997,0.9761322615768482
0.32,0.974444715023341
0.36,0.9725516358562375
0.39999999999999997,0.9704602469152007
0.44,0.9681785724960723
0.48,0.9657154211929302
0.52,0.9630803663830354
0.5599999999999999,0.9602837241961889
0.6,0.9573365287993288
0.64,0.954250504818614
0.6799999999999999,0.9510380367150666
0.72,0.9477121349267693
0.76,0.9442863985912386
0.7999999999999999,0.9407749746665749
0.84,0.9371925132800722
0.88,0.9335541191490078
0.9199999999999999,0.9298752989408449
0.96,0.9261719044701071
1.0,0.9224600716670931
1.04,0.9187561553001009
1.0799999999999998,0.9150766594882008
1.1199999999999999,0.9114381641059729
1.1600000000000001,0.9078572472548192
1.2,0.9043504040570036
1.24,0.9009339621173569
1.28,0.8976239940924003
1.3199999999999998,0.8944362279054552
1.3599999999999999,0.8913859552467072
1.4,0.8884879390963941
1.44,0.8857563211039302
1.48,0.8832045297421962
1.52,0.8808451902306665
1.5599999999999998,0.8786900372795434
1.5999999999999999,0.8767498317460317
1.64,0.8750342823097921
1.68,0.8735519732649935
1.72,0.8723102994890208
1.76,0.8713154095821707
1.7999999999999998,0.8705721580785728
1.8399999999999999,0.8700840675077656
1.88,0.8698533009414409
1.92,0.8698806454947944
1.9599999999999997,0.8701655070715127
2.0,0.8707059164514892
2.0399999999999996,0.8714985466269795
2.08,0.8725387411025034
2.12,0.8738205526926677
2.1599999999999997,0.8753367921858254
2.2,0.8770790860952062
2.2399999999999998,0.8790379425967454
2.28,0.8812028246571402
2.3200000000000003,0.8835622292882203
2.36,0.8861037718248997
2.4,0.888814274112855
2.44,0.8916798555069868
2.48,0.8946860256196424
2.5199999999999996,0.8978177778156033
2.56,0.9010596825249193
2.6,0.9043959795310665
2.6399999999999997,0.9078106684867948
2.68,0.9112875970096022
2.7199999999999998,0.9148105458098168
2.76,0.9183633104037311
2.8,0.9219297790598145
2.84,0.92549400671561
2.88,0.9290402846851805
2.92,0.9325532060508881
2.96,0.936017726698225
2.9999999999999996,0.9394192220083346
3.04,0.9427435392696493
3.08,0.9459770459083268
3.1199999999999997,0.9491066736671646
3.16,0.9521199588852544
3.1999999999999997,0.9550050790464745
3.2399999999999998,0.9577508857746897
3.28,0.960346934458172
3.32,0.9627835106858547
3.36,0.9650516536743797
3.4,0.9671431768581397
3.44,0.9690506858051704
3.4799999999999995,0.970767593610414
3.52,0.9722881339049506
3.5599999999999996,0.9736073716056534
3.5999999999999996,0.974721211514748
3.64,0.9756264048631496
3.6799999999999997,0.976320553875457
3.7199999999999998,0.9768021144183079
3.76,0.9770703967775216
3.7999999999999994,0.9771255645932717
3.84,0.9769686319664463
3.88,0.9766014587335672
3.9199999999999995,0.9760267438921293
3.96,0.9752480171431036
4.0,0.9742696285027886
4.04,0.9730967359221454
4.079999999999999,0.9717352908385386
4.12,0.970192021572402
4.16,0.9684744144700272
4.199999999999999,0.9665906926837342
4.24,0.9645497924722005
4.28,0.9623613368971773
4.319999999999999,0.960035606788497
4.36,0.9575835088475088
4.4,0.9550165407604323
4.4399999999999995,0.9523467531978975
4.4799999999999995,0.949586708585723
4.5200000000000005,0.9467494365452871
4.56,0.9438483859200645
4.6,0.9408973733285265
4.640000000000001,0.9379105282131486
4.68,0.9349022343907716
4.72,0.9318870681516497
4.76,0.928879733002708
4.8,0.9258949912051376
4.84,0.9229475923168692
4.88,0.9200521990159227
4.92,0.9172233105505316
4.96,0.9144751842346727
5.0,0.9118217554817972
5.039999999999999,0.9092765569432978
5.08,0.9068526373892427
5.12,0.90456248103493
5.159999999999999,0.9024179280751832
5.2,0.9004300972365047
5.24,0.8986093111925826
5.279999999999999,0.8969650257088789
5.319999999999999,0.8955057633850508
5.36,0.8942390528481217
5.3999999999999995,0.8931713742135999
5.4399999999999995,0.89230811157587
5.48,0.8916535132134218
5.52,0.8912106601001913
5.56,0.8909814432034425
5.6,0.8909665499238005
5.64,0.8911654598979865
5.68,0.8915764502429414
5.72,0.8921966101759169
5.76,0.8930218648028223
5.8,0.8940470077310084
5.84,0.8952657420365289
5.879999999999999,0.8966707290033262
5.92,0.8982536439554701
5.96,0.9000052384256861
5.999999999999999,0.9019154078452147
6.04,0.9039732639021242
6.08,0.9061672106971315
6.119999999999999,0.9084850238270765
6.16,0.9109139315445355
6.2,0.9134406971759783
6.239999999999999,0.9160517020277196
6.279999999999999,0.9187330280663112
6.32,0.9214705397252265
6.359999999999999,0.924249964260244
6.3999999999999995,0.9270569701492222
6.44,0.9298772431060165
6.4799999999999995,0.9326965593509331
6.52,0.9355008558499198
6.56,0.9382762973002026
6.6,0.9410093397004667
6.64,0.9436867903980317
6.68,0.9462958645536529
6.72,0.948824238006109
6.76,0.9512600965538934
6.8,0.9535921817000939
6.84,0.9558098329293554
6.88,0.9579030266029817
6.92,0.959862411570258
6.959999999999999,0.961679341601407
7.0,0.9633459047507743
7.04,0.9648549497582652
7.08,0.9662001095933731
7.119999999999999,0.9673758222395675
7.16,0.968377348807976
7.199999999999999,0.9692007890583908
7.239999999999999,0.9698430943931393
7.28,0.9703020783754596
7.32,0.970576424809102
7.359999999999999,0.970665693400048
7.3999999999999995,0.9705703230048962
7.4399999999999995,0.9702916324535931
7.4799999999999995,0.9698318189172767
7.52,0.9691939537749523
7.5600000000000005,0.9683819759160033
7.599999999999999,0.9674006823992334
7.64,0.9662557163735809
7.68,0.9649535521510495
7.719999999999999,0.9635014773092354
7.76,0.9619075716892617
7.800000000000001,0.9601806831455876
7.839999999999999,0.9583303998973876
7.88,0.956367019327541
7.92,0.9543015130753207
7.959999999999999,0.9521454882732173
8.0,0.9499111447875875
8.040000000000001,0.9476112283376971
8.08,0.9452589793887133
8.12,0.9428680777420796
8.159999999999998,0.9404525827818372
8.2,0.9380268693782713
8.24,0.9356055595011011
8.28,0.9332034496531864
8.32,0.9308354343022854
8.36,0.9285164255621962
8.399999999999999,0.9262612694547967
8.44,0.9240846591697532
8.48,0.9220010458274822
8.52,0.9200245473410854
8.56,0.9181688560620895
8.6,0.9164471459801634
8.639999999999999,0.9148719803253824
8.68,0.9134552204898996
8.72,0.9122079372409295
8.76,0.9111403252353737
8.8,0.9102616218656643
8.84,0.9095800314638993
8.879999999999999,0.9091026558654488
8.92,0.9088354322829891
8.959999999999999,0.9087830793672966
9.0,0.9089490522330833
9.040000000000001,0.9093355071086413
9.079999999999998,0.9099432761299201
9.12,0.9107718526468243
9.16,0.9118193872462195
9.2,0.9130826945275635
9.24,0.9145572704983278
9.280000000000001,0.9162373202926333
9.32,0.9181157957627967
9.36,0.9201844423541724
9.399999999999999,0.9224338545524622
9.44,0.9248535390925117
9.48,0.927431985040273
9.52,0.9301567398062751
9.559999999999999,0.9330144901192018
9.6,0.9359911469815749
9.639999999999999,0.9390719336438681
9.68,0.942241475666931
9.72,0.945483892192057
9.76,0.9487828876008745
9.8,0.9521218428199821
9.84,0.9554839056050933
9.879999999999999,0.9588520792231445
9.92,0.9622093090361216
9.959999999999999,0.965538566574399
10.0,0.9688229307687247
10.04,0.9720456660865627
10.079999999999998,0.9751902973894356
10.12,0.9782406813922084
10.16,0.9811810746623126
10.2,0.9839961981467423
10.24,0.9866712982568991
10.280000000000001,0.9891922045765605
10.319999999999999,0.9915453842864664
10.36,0.9937179934208344
10.4,0.9956979250869404
10.44,0.9974738547893885
10.48,0.9990352830061884
10.52,1.0003725751649248
10.559999999999999,1.0014769991646324
10.6,1.0023407605826933
10.639999999999999,1.00295703569684
10.68,1.0033200024402138
10.72,1.003424869392781
10.76,1.0032679028953664
10.799999999999999,1.0028464523533147
10.84,1.0021589737752374
10.879999999999999,1.0012050515686501
10.92,0.9999854185883237
10.96,0.9985019744048937
11.0,0.9967578017305434
11.04,0.9947571809052399
11.08,0.992505602311042
11.12,0.9900097765431399
11.16,0.9872776421246048
11.2,0.9843183705072923
11.24,0.9811423680539304
11.28,0.9777612746465558
11.319999999999999,0.9741879585143346
11.36,0.9704365068201648
11.4,0.9665222114910837
11.44,0.962461549723638
11.48,0.9582721585435338
11.52,0.9539728027510478
11.559999999999999,0.9495833355422248
11.6,0.945124651063899
11.64,0.9406186281411211
11.68,0.9360880644130124
11.72,0.931556600131207
11.759999999999998,0.9270486309189199
11.799999999999999,0.9225892088627076
11.84,0.9182039314179706
11.879999999999999,0.9139188177573461
11.92,0.909760172381578
11.96,0.9057544360474311
11.999999999999998,0.901928024346942
12.04,0.8983071545945279
12.08,0.8949176620385528
12.12,0.891784806803542
12.16,0.8889330733767992
12.200000000000001,0.8863859648638427
12.239999999999998,0.8841657946324325
12.28,0.8822934783247395
12.32,0.8807883295190346
12.36,0.879667862544361
12.4,0.8789476060734883
12.44,0.8786409311239071
12.479999999999999,0.8787588969721408
12.52,0.8793101182280174
12.559999999999999,0.8803006559256411
12.6,0.8817339349777209
12.64,0.8836106897290068
12.68,0.8859289386589153
12.719999999999999,0.8886839885547543
12.76,0.8918684677397989
12.799999999999999,0.895472387229737
12.84,0.8994832280397117
12.88,0.9038860523002041
12.92,0.9086636353853025
12.959999999999999,0.9137966159254121
12.999999999999998,0.9192636603739999
13.04,0.9250416387228224
13.08,0.9311058080032226
13.12,0.9374300003582338
13.16,0.9439868127032103
13.2,0.9507477952911002
13.239999999999998,0.9576836368414768
13.28,0.9647643442601241
13.32,0.9719594153503043
13.36,0.9792380032826143
13.4,0.9865690719354339
13.44,0.993921541533259
13.479999999999999,1.0012644242900763
13.52,1.008566950005938
13.559999999999999,1.0157986817663447
13.6,1.0229296220569193
13.64,1.0299303097324917
13.68,1.03677190837351
13.719999999999999,1.0434262866274986
13.76,1.0498660911731963
13.799999999999999,1.0560648129642685
13.84,1.061996847411944
13.88,1.0676375491552719
13.919999999999998,1.0729632820471455
13.959999999999999,1.0779514649567454
14.0,1.08258061395679
14.04,1.0868303814292954
14.08,1.0906815925876616
14.120000000000001,1.0941162798774324
14.16,1.0971177156837502
14.2,1.099670443741187
14.239999999999998,1.1017603096116824
14.28,1.1033744905690743
14.32,1.1045015252043358
14.36,1.1051313430440042
14.399999999999999,1.1052552944554759
14.44,1.1048661810964466
14.479999999999999,1.1039582871515652
14.52,1.1025274115869577
14.56,1.1005709016421263
14.6,1.0980876877681671
14.64,1.0950783202107544
14.68,1.0915450074247721
14.719999999999999,1.0874916564940151
14.76,1.0829239157126977
14.799999999999999,1.0778492194641043
14.84,1.0722768355038979
14.879999999999999,1.0662179147191646
14.919999999999998,1.0596855433868122
14.959999999999999,1.0526947978933423
15.0,1.0452628017990686
15.04,1.0374087850290816
15.079999999999998,1.029154144846557
15.120000000000001,1.0205225081055977
15.159999999999998,1.0115397940852346
15.199999999999998,1.002234276967032
15.24,0.9926366467294454
15.28,0.9827800668862747
15.319999999999999,0.9727002270884432
15.36,0.9624353881336098
15.399999999999999,0.9520264163849218
15.439999999999998,0.9415168039909996
15.48,0.9309526706318536
15.52,0.9203827418065661
15.559999999999999,0.9098582979553039
15.600000000000001,0.8994330880116436
15.639999999999999,0.8891632003690287
15.679999999999998,0.8791068837935888
15.72,0.8693243106205516
15.76,0.8598772747469462
15.799999999999999,0.8508288176059159
15.84,0.8422427766080501
15.879999999999999,0.8341832525802135
15.919999999999998,0.8267139956068246
15.96,0.8198977124066719
16.0,0.8137953028959778
16.04,0.8084650387173343
16.080000000000002,0.8039617019451141
16.12,0.8003357074723927
16.16,0.7976322371990475
16.200000000000003,0.7958904174815838
16.24,0.7951425728071085
16.279999999999998,0.7954135878756281
16.319999999999997,0.796720406993767
16.36,0.7990716939651542
16.4,0.8024676678902573
16.439999999999998,0.8069001211288607
16.48,0.8123526159991932
16.52,0.818800847528056
16.56,0.8262131515954131
16.6,0.8345511318079085
16.64,0.8437703747806965
16.68,0.8538212222892887
16.72,0.8646495697733365
16.759999999999998,0.8761976635199265
16.799999999999997,0.8884048729899885
16.84,0.9012084196120026
16.88,0.9145440484318244
16.919999999999998,0.9283466338523827
16.96,0.9425507150191246
17.0,0.9570909600263621
17.04,0.9719025609632006
17.080000000000002,0.9869215638972382
17.12,1.002085139278614
17.16,1.01733179903904
17.2,1.0326015669759616
17.24,1.0478361089660069
17.279999999999998,1.0629788292488302
17.32,1.0779749385513437
17.36,1.0927714992551203
17.4,1.1073174522013725
17.44,1.1215636291185782
17.48,1.1354627540749966
17.52,1.1489694368191137
17.56,1.1620401603853765
17.6,1.1746332649140356
17.64,1.1867089292626571
17.68,1.1982291516701788
17.72,1.2091577304681538
17.759999999999998,1.219460245613069
17.799999999999997,1.229104041633008
17.84,1.2380582124365762
17.88,1.2462935883167445
17.919999999999998,1.2537827253930671
17.96,1.2604998976685033
18.0,1.2664210918285452
18.04,1.2715240048777667
18.080000000000002,1.2757880446898169
18.12,1.2791943335394471
18.159999999999997,1.2817257146878782
18.2,1.2833667621045444
18.24,1.2841037934282806
18.279999999999998,1.2839248862986625
18.32,1.2828198982235308
18.36,1.2807804901915147
18.4,1.277800154289098
18.44,1.2738742456407997
18.48,1.2690000190593966
18.52,1.2631766708714185
18.560000000000002,1.2564053864730464
18.6,1.2486893942742117
18.64,1.2400340268059826
18.679999999999996,1.2304467899002076
18.72,1.2199374410028907
18.759999999999998,1.2085180778563862
18.799999999999997,1.1962032389824222
18.84,1.1830100176206804
18.88,1.1689581910280518
18.919999999999998,1.1540703673231114
18.96,1.1383721523689299
19.0,1.1218923395231135
19.04,1.1046631254414727
19.080000000000002,1.0867203554909126
19.119999999999997,1.0681038026896037
19.159999999999997,1.0488574844192946
19.2,1.0290300213998116
19.24,1.0086750435106457
19.279999999999998,0.98785164688743
19.32,0.9666249061657967
19.36,0.9450664445851472
19.4,0.9232550626153759
19.44,0.9012774224472515
19.48,0.8792287805923121
19.52,0.8572137533454496
19.560000000000002,0.8353470892359306
19.6,0.8137544080396311
19.639999999999997,0.7925728467406367
19.68,0.7719515286554054
19.72,0.7520517431992967
19.759999999999998,0.7330466923643209
19.8,0.7151206300715509
19.84,0.6984671995287624
19.88,0.683286772620183
19.919999999999998,0.6697826283297962
19.96,0.6581558888408747
20.0,0.6485992718200516
20.04,0.6412899120432186
20.08,0.6363817305305928
20.119999999999997,0.6339980363229694
20.159999999999997,0.6342251703296304
20.2,0.6371079822885776
20.24,0.6426477433413211
20.279999999999998,0.6508027639946855
20.32,0.6614915884950711
20.36,0.6745982750895322
20.4,0.6899790351125946
20.44,0.7074694329257003
20.48,0.7268914293260813
20.52,0.7480597306952936
20.560000000000002,0.7707871211895987
20.599999999999998,0.7948886535082925
20.639999999999997,0.8201847252049241
20.68,0.8465031635829157
20.72,0.8736804889778763
20.759999999999998,0.9015625364398552
20.8,0.930004603106714
20.84,0.958871264190112
20.88,0.9880359724056395
20.92,1.017380528668307
20.96,1.0467944883637907
21.0,1.0761745483391592
21.04,1.1054239448667276
21.08,1.1344518817048268
21.119999999999997,1.1631729993352158
21.159999999999997,1.1915068908270965
21.2,1.2193776659697262
21.24,1.2467135628427326
21.279999999999998,1.2734466044738975
21.32,1.2995122973789766
21.36,1.3248493683740692
21.4,1.3493995359438233
21.44,1.3731073125298778
21.48,1.395919834297355
21.52,1.4177867151919854
21.56,1.4386599223821004
21.599999999999998,1.4584936704664162
21.639999999999997,1.4772443321066142
21.68,1.494870363005288
21.72,1.5113322393907882
21.759999999999998,1.5265924063893903
21.8,1.5406152358618657
21.84,1.5533669924572364
21.88,1.5648158067924047
21.92,1.574931654804714
21.96,1.5836863424467826
22.0,1.5910534950014448
22.04,1.5970085503909497
22.08,1.601528755940429
22.119999999999997,1.6045931681328363
22.16,1.6061826549624785
22.2,1.606279900558328
22.24,1.6048694118080349
22.28,1.6019375267701499
22.32,1.5974724247169942
22.36,1.5914641377052139
22.4,1.583904563626896
22.44,1.5747874807528188
22.48,1.5641085638430283
22.519999999999996,1.5518654019705955
22.56,1.5380575182851122
22.599999999999998,1.5226863920365312
22.639999999999997,1.5057554832917628
22.68,1.4872702609117654
22.72,1.4672382345226604
22.759999999999998,1.4456689914205865
22.8,1.4225742396088685
22.84,1.3979678584946338
22.88,1.3718659591929498
22.92,1.3442869569307414
22.96,1.3152516587524097
23.0,1.2847833706630682
23.04,1.2529080295851829
23.08,1.21965436716583
23.119999999999997,1.1850541147192026
23.16,1.1491422616592601
23.2,1.1119573840152417
23.24,1.0735420655358252
23.28,1.0339434422318337
23.32,0.9932139131224613
23.36,0.9514120771754323
23.400000000000002,0.9086039816550819
23.44,0.8648648045172048
23.479999999999997,0.820281149762193
23.519999999999996,0.7749542203886445
23.56,0.7290042658197317
23.599999999999998,0.6825769067741534
23.639999999999997,0.6358522639686137
23.68,0.5890583243152305
23.72,0.5424907623119197
23.759999999999998,0.4965425926852748
23.8,0.4517485454914519
23.84,0.4088503520791413
23.88,0.36888772719426166
23.92,0.33330804339001546
23.96,0.3040481410320112
23.999999999999996,0.283456896381752
24.04,0.27385302928077826
24.08,0.2766907465673396
24.119999999999997,0.2918543956463337
24.16,0.31776927057929677
24.2,0.3521986431688499
24.24,0.39299117865422134
24.28,0.43841388287597993
24.32,0.4871793401221016
24.36,0.5383579750605063
24.400000000000002,0.5912782590197956
24.439999999999998,0.6454471835840051
24.479999999999997,0.7004938970029264
24.52,0.7561314656402068
24.56,0.8121312547958868
24.599999999999998,0.8683057267565991
24.64,0.9244967831351579
24.68,0.9805677654308337
24.72,1.0363978906285798
24.759999999999998,1.0918783275789279
24.8,1.1469093942815873
24.84,1.2013985318944813
24.88,1.255258824630446
24.92,1.3084079086012719
24.959999999999997,1.3607671614447814
24.999999999999996,1.41226109718463
25.04,1.4628169128671271
25.08,1.512364148681486
25.119999999999997,1.560834433806069
25.16,1.6081612976333794
25.2,1.6542800312990091
25.24,1.6991275882324892
25.28,1.7426425152055491
25.32,1.784764907377991
25.36,1.8254363823428055
25.4,1.8646000692954736
25.439999999999998,1.9022006103005342
25.479999999999997,1.938184171274447
25.52,1.9724984607998435
25.56,2.0050927552706304
25.599999999999998,2.035917929167791
25.64,2.0649264895026516
25.68,2.0920726136531886
25.72,2.1173121899711145
25.76,2.140602860661592
25.8,2.161904066540447
25.84,2.1811770933606365
25.880000000000003,2.198385119474739
25.919999999999998,2.213493264666708
25.959999999999997,2.2264686400467504
25.999999999999996,2.237280398960428
26.04,2.245899788919015
26.08,2.252300204614776
26.119999999999997,2.256457242144163
26.16,2.2583487546260157
26.2,2.2579549094729545
26.24,2.2552582476548175
26.28,2.2502437453862596
26.32,2.242898878780069
26.36,2.2332136921377983
26.4,2.2211808707054947
26.439999999999998,2.20679581891145
26.479999999999997,2.1900567453338313
26.52,2.170964755929904
26.56,2.1495239574097673
26.599999999999998,2.1257415730747065
26.64,2.099628073987791
26.68,2.071197329034018
26.72,2.0404667783014276
26.76,2.007457635328837
26.8,1.972195125195205
26.84,1.9347087672704388
26.88,1.895032713843763
26.919999999999998,1.8532061589787951
26.959999999999997,1.809273836067896
27.0,1.7632866280219521
27.04,1.7153023213200032
27.08,1.665386544931459
27.119999999999997,1.613613948356071
27.16,1.5600696910278848
27.2,1.5048513399570767
27.24,1.4480713063370285
27.28,1.3898599985287057
27.32,1.3303699332615302
27.36,1.2697811355229631
27.4,1.2083082783792467
27.439999999999998,1.1462101751705067
27.479999999999997,1.083802443004989
27.52,1.0214743993481321
27.56,0.9597114851845135
27.599999999999998,0.8991245867721946
27.64,0.8404872035520573
27.68,0.7847797243490608
27.72,0.7332357092834687
27.76,0.687375977969924
27.8,0.6490012323914012
27.839999999999996,0.6200975039290085
27.88,0.6026099404379588
27.919999999999998,0.5980912936037052
27.959999999999997,0.6073362053957484
