Time (s),Filtered Signal
0.0,-0.008529462786785656
0.0334075723830735,-0.23898460556906564
0.066815144766147,-0.4038831632422838
0.1002227171492205,-0.45822915826392613
0.133630289532294,-0.3905017045204528
0.1670378619153675,-0.22370082415121875
0.200445434298441,-0.005267300022129191
0.23385300668151449,0.20929164485317345
0.267260579064588,0.37275823912726214
0.3006681514476615,0.45747364362291054
0.334075723830735,0.45919177128043703
0.3674832962138085,0.39390020640090834
0.400890868596882,0.28980125321117783
0.4342984409799555,0.1774650358480217
0.46770601336302897,0.08119420058563112
0.5011135857461025,0.013949484479026374
0.534521158129176,-0.023178697488235322
0.5679287305122495,-0.03764753261144697
0.601336302895323,-0.040275838231409136
0.6347438752783965,-0.04047517834223582
0.66815144766147,-0.0434315976959489
0.7015590200445435,-0.04956075734472342
0.734966592427617,-0.0556251118037488
0.7683741648106905,-0.05662871451927682
0.801781737193764,-0.047851156100290546
0.8351893095768375,-0.026718347537225975
0.868596881959911,0.005697250825516068
0.9020044543429845,0.04391159389112128
0.9354120267260579,0.07851380214740418
0.9688195991091315,0.09825983361710107
1.002227171492205,0.09357009297342304
1.0356347438752784,0.06044508862886889
1.069042316258352,0.0032289763413336737
1.1024498886414256,-0.06531074915985066
1.135857461024499,-0.127271875874238
1.1692650334075725,-0.16552967832620727
1.202672605790646,-0.1701368146204576
1.2360801781737194,-0.1424774888570409
1.269487750556793,-0.09511738180052508
1.3028953229398665,-0.047089842371318906
1.33630289532294,-0.016471853773536653
1.3697104677060135,-0.013442972414408555
1.403118040089087,-0.03683955860364409
1.4365256124721606,-0.07556731025799555
1.469933184855234,-0.11395590987626314
1.5033407572383075,-0.13838225147656955
1.536748329621381,-0.14209873811428717
1.5701559020044544,-0.12631001309188164
1.603563474387528,-0.09753099440411472
1.6369710467706016,-0.06309540720302512
1.670378619153675,-0.02742908313294776
1.7037861915367485,0.008994474112276414
1.737193763919822,0.04779803244657829
1.7706013363028954,0.08943526877286725
1.804008908685969,0.1307541981480207
1.8374164810690425,0.16502788356605733
1.8708240534521159,0.1845565832009397
1.9042316258351895,0.18440410736555946
1.937639198218263,0.1651549912722788
1.9710467706013366,0.13309657198479208
2.00445434298441,0.09760133834142029
2.0378619153674835,0.06695291694846957
2.071269487750557,0.04467235036949067
2.1046770601336307,0.02817606061456079
2.138084632516704,0.010473758376647008
2.1714922048997773,-0.015837381214039648
2.204899777282851,-0.05411086164827008
2.2383073496659245,-0.10079290727425605
2.271714922048998,-0.145581782127808
2.3051224944320716,-0.1747721521833981
2.338530066815145,-0.1766183956037355
2.3719376391982183,-0.14662602750479192
2.405345211581292,-0.09052716388172782
2.4387527839643655,-0.023432758696947473
2.472160356347439,0.03492521907434348
2.5055679287305126,0.06735514966675563
2.538975501113586,0.066137376442593
2.5723830734966593,0.036931197660288226
2.605790645879733,-0.0021977290505210724
2.6391982182628064,-0.026733743312563816
2.67260579064588,-0.014810284982284693
2.7060133630289536,0.04379537402623155
2.739420935412027,0.14228709398859712
2.7728285077951007,0.2575106566917536
2.806236080178174,0.3568841117398378
2.8396436525612474,0.40933625445340843
2.873051224944321,0.3961991063330278
2.9064587973273945,0.31776487750511806
2.939866369710468,0.19281251715534659
2.9732739420935417,0.051284515040680004
3.006681514476615,-0.07679346510195717
3.0400890868596884,-0.17150142243527478
3.073496659242762,-0.2282581407167811
3.1069042316258355,-0.2564405720066354
3.140311804008909,-0.27269364652737654
3.1737193763919826,-0.29229456765639916
3.207126948775056,-0.3222709062468089
3.2405345211581293,-0.3587360420370202
3.273942093541203,-0.38893297259962056
3.3073496659242765,-0.3966888550350053
3.34075723830735,-0.36895776964252663
3.3741648106904236,-0.3010350273132064
3.407572383073497,-0.1987389079847326
3.4409799554565703,-0.07705516467022162
3.474387527839644,0.04403519212166299
3.5077951002227175,0.14503248421829606
3.541202672605791,0.21204916256659823
3.5746102449888646,0.24031602569804794
3.608017817371938,0.23531018605633847
3.6414253897550113,0.2111895079005058
3.674832962138085,0.18662547151952186
3.7082405345211584,0.17871176391985497
3.7416481069042318,0.19643584653862747
3.7750556792873056,0.2359310231315961
3.808463251670379,0.27982806498969537
3.8418708240534527,0.3020432681246516
3.875278396436526,0.2772970855787817
3.9086859688195994,0.19226149969603737
3.942093541202673,0.0537016191959579
3.9755011135857465,-0.11057020546642178
4.00890868596882,-0.2594124680644712
4.042316258351893,-0.3523135837655131
4.075723830734967,-0.3639866215445909
4.109131403118041,-0.29339095604721543
4.142538975501114,-0.16345529931421124
4.1759465478841875,-0.012083976900121605
4.209354120267261,0.12118327794032863
4.242761692650334,0.20717604738700926
4.276169265033408,0.23361984244129816
4.309576837416482,0.20515121700323408
4.342984409799555,0.13855364825083583
4.3763919821826285,0.05609965667008026
4.409799554565702,-0.020588203968859953
4.443207126948775,-0.07495363596714544
4.476614699331849,-0.09799889780789446
4.510022271714923,-0.08906784278283411
4.543429844097996,-0.05514913323470048
4.5768374164810695,-0.008895501330298986
4.610244988864143,0.03435513663675743
4.643652561247216,0.0601154214565628
4.67706013363029,0.058291496624659496
4.710467706013364,0.026129587340993694
4.743875278396437,-0.030109774854472457
4.77728285077951,-0.095497473217433
4.810690423162584,-0.14940343285111024
4.844097995545657,-0.17105576215528057
4.877505567928731,-0.14654141573544985
4.910913140311805,-0.074958559245769
4.944320712694878,0.028973910531606292
4.977728285077951,0.13767096085021047
5.011135857461025,0.21860481323940634
5.044543429844098,0.2449074674142434
5.077951002227172,0.20474297007305903
5.111358574610246,0.1057740328033992
5.144766146993319,-0.027103774127886122
5.178173719376392,-0.15994786834229247
5.211581291759466,-0.26079367089650474
5.244988864142539,-0.3094696597972257
5.278396436525613,-0.3027944469783309
5.311804008908687,-0.253627140634622
5.34521158129176,-0.18454755284836075
5.378619153674833,-0.11880290119265507
5.412026726057907,-0.07196768999597279
5.445434298440981,-0.04732753893722643
5.478841870824054,-0.03650642019928589
5.512249443207128,-0.024805152975262736
5.545657015590201,0.0011808386391153848
5.579064587973274,0.047068923883128465
5.612472160356348,0.10822811215342057
5.645879732739422,0.17234207086431183
5.679287305122495,0.2254839185051134
5.712694877505569,0.2583970823736057
5.746102449888642,0.26965983072350236
5.779510022271715,0.2642747036379894
5.812917594654789,0.2489285295746352
5.846325167037863,0.22710609032584592
5.879732739420936,0.19722801337779677
5.91314031180401,0.15501629892630034
5.946547884187083,0.09855981987315227
5.979955456570156,0.032724222065525464
6.01336302895323,-0.030239587672049612
6.046770601336304,-0.074876601418522
6.080178173719377,-0.08964620405851893
6.1135857461024505,-0.07326998447747077
6.146993318485524,-0.036793514100008466
6.180400890868597,4.9197200070614105e-05
6.213808463251671,0.016741070786726202
6.247216035634745,0.0006337058536605479
6.280623608017818,-0.047552962476183826
6.3140311804008915,-0.11386404035762468
6.347438752783965,-0.17687516270080497
6.380846325167038,-0.2166436051789264
6.414253897550112,-0.22299666713739252
6.447661469933186,-0.1995275241578476
6.481069042316259,-0.16146967302057724
6.5144766146993325,-0.1283202749609003
6.547884187082406,-0.11453104864026713
6.581291759465479,-0.1226091564524231
6.614699331848553,-0.14195371678363325
6.648106904231627,-0.15405530547391566
6.6815144766147,-0.14158038919524565
6.7149220489977735,-0.09693401699944773
6.748329621380847,-0.026173177382678055
6.78173719376392,0.05350307302941795
6.815144766146994,0.12128353774005976
6.848552338530068,0.16155464559599483
6.881959910913141,0.16989091809305912
6.915367483296214,0.1537685280813281
6.948775055679288,0.1281824358655844
6.982182628062361,0.10860127709892077
7.015590200445435,0.10456532191566122
7.048997772828509,0.1165360709411764
7.082405345211582,0.13690272537732534
7.115812917594655,0.1542310298582798
7.149220489977729,0.1586533562736881
7.182628062360802,0.14608262101816546
7.216035634743876,0.1196049886263817
7.24944320712695,0.08761985910527195
7.282850779510023,0.05960049813534355
7.316258351893096,0.04130328227288954
7.34966592427617,0.031522019796796634
7.383073496659243,0.021949301092561234
7.416481069042317,0.0005358387629966737
7.449888641425391,-0.04267816033110093
7.4832962138084635,-0.10947083033795336
7.516703786191537,-0.18979411313993136
7.550111358574611,-0.26274867232542587
7.583518930957685,-0.302719717055889
7.616926503340758,-0.28893891689543416
7.650334075723832,-0.21478882189469825
7.683741648106905,-0.09265339173242158
7.717149220489978,0.04838503034879103
7.750556792873052,0.17166505041605515
7.783964365256126,0.2453945650988946
7.817371937639199,0.25332207907144894
7.850779510022273,0.19932847732235753
7.884187082405346,0.10444405068553353
7.917594654788419,-0.0018746601420468769
7.951002227171493,-0.09218555672468921
7.984409799554567,-0.1490663994377064
8.01781737193764,-0.16821449179258627
8.051224944320714,-0.15655348496543084
8.084632516703786,-0.12711519843638672
8.118040089086861,-0.09313659100024996
8.151447661469934,-0.0634292051626533
8.184855233853007,-0.040215661964244594
8.218262806236082,-0.01977364994701187
8.251670378619155,0.004497779688379426
8.285077951002227,0.037672116924522374
8.318485523385302,0.07926145802968884
8.351893095768375,0.12147810116313762
8.385300668151448,0.15108283618019525
8.418708240534523,0.15459720137008165
8.452115812917596,0.12486474139211888
8.485523385300668,0.06587133400643115
8.518930957683743,-0.006854485611254252
8.552338530066816,-0.07104775350135381
8.585746102449889,-0.10599669630747353
8.619153674832964,-0.10075497765710419
8.652561247216036,-0.058557952806973915
8.68596881959911,0.004601294666909345
8.719376391982184,0.06658169410388283
8.752783964365257,0.10785454409769366
8.78619153674833,0.1184892935640371
8.819599109131405,0.10045349593784215
8.853006681514477,0.06469314452686085
8.88641425389755,0.024976080809928945
8.919821826280625,-0.008156862997399584
8.953229398663698,-0.030454010009046194
8.98663697104677,-0.04309928483973912
9.020044543429846,-0.04926781963400633
9.053452115812918,-0.05066198750983428
9.086859688195991,-0.04619824493939071
9.120267260579066,-0.033363273257324064
9.153674832962139,-0.010979956847098942
9.187082405345212,0.018673614124545268
9.220489977728286,0.049857515290160165
9.25389755011136,0.07544830863730596
9.287305122494432,0.08969970095434963
9.320712694877507,0.08991291034112371
9.35412026726058,0.07608409808094847
9.387527839643653,0.04905599021150665
9.420935412026727,0.008787257702309634
9.4543429844098,-0.04567932743366094
9.487750556792873,-0.11413276897594636
9.521158129175948,-0.19214379057467457
9.55456570155902,-0.2691611356657822
9.587973273942094,-0.32955428444110635
9.621380846325168,-0.35689503166385783
9.654788418708241,-0.33987665453981114
9.688195991091314,-0.2770931007118832
9.721603563474389,-0.17820488035218465
9.755011135857462,-0.060739248798723874
9.788418708240535,0.05600674965502658
9.82182628062361,0.1570336946490895
9.855233853006682,0.23490293141664445
9.888641425389755,0.2890792191353343
9.92204899777283,0.3224040986606591
9.955456570155903,0.3371615271175334
9.988864142538976,0.33310165146078274
10.02227171492205,0.30837881470624495
10.055679287305123,0.26256393262600175
10.089086859688196,0.19972820967438829
10.12249443207127,0.12958191603334085
10.155902004454344,0.06564584589032635
10.189309576837417,0.02088156852567683
10.222717149220491,0.002486522829757547
10.256124721603564,0.008169998887846072
10.289532293986637,0.025869295599518796
10.322939866369712,0.03756092728465729
10.356347438752785,0.026021330816079623
10.389755011135858,-0.018092977084986087
10.423162583518932,-0.09184651227826261
10.456570155902005,-0.18027653334383528
10.489977728285078,-0.2612948575739579
10.523385300668153,-0.3133044638405619
10.556792873051226,-0.32259928012000894
10.590200445434299,-0.2878903558989405
10.623608017817373,-0.2205272205208626
10.657015590200446,-0.1405177196780424
10.69042316258352,-0.06975199691480188
10.723830734966594,-0.02464667960651312
10.757238307349667,-0.010653609644392006
10.790645879732741,-0.02063835626338551
10.824053452115814,-0.03797264458560166
10.857461024498887,-0.04348397000581674
10.890868596881962,-0.023727194048264646
10.924276169265035,0.02281848760645329
10.957683741648108,0.08446517273087957
10.991091314031182,0.14082658331680015
11.024498886414255,0.17142308252370037
11.057906458797328,0.16467486753042979
11.091314031180403,0.12318316123096301
11.124721603563476,0.06274245110310477
11.158129175946549,0.00539771135299874
11.191536748329623,-0.03026309455633595
11.224944320712696,-0.03695273275937219
11.25835189309577,-0.020869314125658678
11.291759465478844,0.0027647470504941073
11.325167037861917,0.018401038371819122
11.35857461024499,0.01851433014202332
11.391982182628064,0.007265878053115402
11.425389755011137,-0.002292849808173048
11.45879732739421,0.004217012327188935
11.492204899777285,0.034334590721605024
11.525612472160358,0.08431666984438063
11.55902004454343,0.1406135454491852
11.592427616926505,0.18626273971864357
11.625835189309578,0.20868332937574272
11.659242761692651,0.20479538380274442
11.692650334075726,0.18098058340090842
11.726057906458799,0.148217378958902
11.759465478841872,0.11525781527136884
11.792873051224946,0.08365812011527052
11.82628062360802,0.047385331561285486
11.859688195991092,-0.002787530410150179
11.893095768374167,-0.07248330456156572
11.92650334075724,-0.15823927684417172
11.959910913140313,-0.246441386731887
11.993318485523387,-0.31750636450467035
12.02672605790646,-0.3533973422289974
12.060133630289533,-0.344785098777754
12.093541202672608,-0.29435052091477837
12.12694877505568,-0.21480037694297102
12.160356347438753,-0.1229999623015603
12.193763919821828,-0.033615985339919434
12.227171492204901,0.044321206971586806
12.260579064587974,0.10648964743633231
12.293986636971049,0.149337689049639
12.327394209354122,0.16647603392245872
12.360801781737194,0.14866224730448419
12.39420935412027,0.08841981324637874
12.427616926503342,-0.01280954699098753
12.461024498886415,-0.13926458402359537
12.49443207126949,-0.2612802662182571
12.527839643652563,-0.3428863542678287
12.561247216035635,-0.35417052474820604
12.59465478841871,-0.28319733988649726
12.628062360801783,-0.14201992762760296
12.661469933184856,0.03624250363866997
12.69487750556793,0.20839471997477196
12.728285077951004,0.3358805716464912
12.761692650334076,0.3973701444139135
12.795100222717151,0.3943776968601411
12.828507795100224,0.34804461846726326
12.861915367483297,0.28883638834705194
12.895322939866372,0.24365989218734374
12.928730512249444,0.22572388225867007
12.962138084632517,0.2310587610110687
12.995545657015592,0.24259961117203588
13.028953229398665,0.23942074153911921
13.062360801781738,0.20657935157871624
13.095768374164813,0.141090819962707
13.129175946547885,0.05179099881186341
13.162583518930958,-0.04592733353372763
13.195991091314033,-0.13704670929352308
13.229398663697106,-0.2117159636489886
13.262806236080179,-0.2659513755424294
13.296213808463254,-0.2991109199554785
13.329621380846326,-0.31093626481182857
13.3630289532294,-0.30080582215629753
13.396436525612474,-0.26981235405548365
13.429844097995547,-0.22382263459788307
13.46325167037862,-0.17452128219926855
13.496659242761694,-0.13645546314081172
13.530066815144767,-0.12072283721927599
13.56347438752784,-0.1285271252763695
13.596881959910915,-0.14863716740798272
13.630289532293988,-0.16111715863873094
13.66369710467706,-0.14634221967972977
13.697104677060135,-0.09514647447043828
13.730512249443208,-0.014836328012843226
13.763919821826281,0.07248832770167216
13.797327394209356,0.1391080538153956
13.830734966592429,0.16427799208578572
13.864142538975502,0.14419976025064937
13.897550111358576,0.09435425585823008
13.93095768374165,0.04277267509723851
13.964365256124722,0.017255815858275913
13.997772828507797,0.032618655415180484
14.03118040089087,0.08413892883096083
14.064587973273943,0.15037057743532012
14.097995545657017,0.20380199676671498
14.13140311804009,0.22389153258145789
14.164810690423163,0.2058991928495373
14.198218262806238,0.16129123051369204
14.23162583518931,0.11007183959480708
14.265033407572384,0.06968337836659594
14.298440979955458,0.046735340491945984
14.331848552338531,0.03589581724480309
14.365256124721604,0.025958233185396935
14.398663697104679,0.008905714433567361
14.432071269487752,-0.013833926193953856
14.465478841870825,-0.031903671014281564
14.4988864142539,-0.03307052349046928
14.532293986636972,-0.012528355197977632
14.565701559020045,0.02137480731460597
14.59910913140312,0.048921814333734145
14.632516703786193,0.048004386317138874
14.665924276169266,0.0057565486894881465
14.69933184855234,-0.07347004394771803
14.732739420935413,-0.16837404213506674
14.766146993318486,-0.24945934301146228
14.79955456570156,-0.291948249906557
14.832962138084634,-0.28627135634282636
14.866369710467707,-0.24088057879143523
14.899777282850781,-0.17627682389992091
14.933184855233854,-0.11377729234094976
14.966592427616927,-0.06514500419385522
15.0,-0.028460871102198703
