Frequency (Hz),Amplitude
0.0,2.3077181639483264
0.04,2.30688236194145
0.08,2.304376363495422
0.12,2.3002043943941466
0.16,2.2943735078588525
0.19999999999999998,2.2868936000881317
0.24,2.277777432351927
0.27999999999999997,2.2670406599825483
0.32,2.2547018687107454
0.36,2.2407826189055364
0.39999999999999997,2.2253074983928225
0.44,2.208304184652045
0.48,2.1898035173217165
0.52,2.169839582084817
0.5599999999999999,2.1484498071533467
0.6,2.125675073727176
0.64,2.101559841963841
0.6799999999999999,2.0761522941602606
0.72,2.049504497009418
0.76,2.0216725849469483
0.7999999999999999,1.992716966733633
0.84,1.962702557513162
0.88,1.9316990386179447
0.9199999999999999,1.8997811473375086
0.96,1.8670289986714557
1.0,1.833528440704315
1.04,1.7993714445870774
1.0799999999999998,1.7646565290903626
1.1199999999999999,1.7294892181807069
1.1600000000000001,1.6939825279052931
1.2,1.6582574758593531
1.24,1.622443602427728
1.28,1.586679487586447
1.3199999999999998,1.551113240064113
1.3599999999999999,1.5159029268709097
1.4,1.4812169004751876
1.44,1.447233968310941
1.48,1.4141433352397192
1.52,1.3821442350030373
1.5599999999999998,1.3514451532679252
1.5999999999999999,1.3222625352284108
1.64,1.2948188685906676
1.68,1.2693400428148565
1.72,1.246051912843386
1.76,1.2251760447309625
1.7999999999999998,1.206924693811852
1.8399999999999999,1.1914951610612257
1.88,1.1790637814769243
1.92,1.1697799037078815
1.9599999999999997,1.1637603010172288
2.0,1.1610844867239107
2.0399999999999996,1.1617913745457173
2.08,1.1658776202878367
2.12,1.173297817583148
2.1599999999999997,1.1839665244646185
2.2,1.1977619061988902
2.2399999999999998,1.2145306284394564
2.28,1.2340935474284183
2.3200000000000003,1.25625172789635
2.36,1.2807923654182527
2.4,1.3074942783908927
2.44,1.3361327421269809
2.48,1.3664835432572497
2.5199999999999996,1.3983262225612538
2.56,1.4314465415720825
2.6,1.4656382518486624
2.6399999999999997,1.5007042686005496
2.68,1.5364573571413747
2.7199999999999998,1.5727204364961191
2.76,1.609326593833828
2.8,1.6461188896715406
2.84,1.6829500193768219
2.88,1.7196818828618146
2.92,1.7561851022988535
2.96,1.7923385175076967
2.9999999999999996,1.8280286803795538
3.04,1.8631493631572407
3.08,1.8976010903500724
3.1199999999999997,1.93129070027206
3.16,1.9641309394082247
3.1999999999999997,1.996040090820945
3.2399999999999998,2.0269416364231
3.28,2.0567639520180796
3.32,2.085440033420212
3.36,2.112907251629866
3.4,2.1391071348748967
3.44,2.163985175290756
3.4799999999999995,2.187490658055881
3.52,2.2095765108976364
3.5599999999999996,2.2301991720166106
3.5999999999999996,2.2493184746280397
3.64,2.2668975464787686
3.6799999999999997,2.2829027228591388
3.7199999999999998,2.2973034717872585
3.76,2.3100723301953847
3.7999999999999994,2.321184850093307
3.84,2.3306195538209455
3.88,2.338357897632254
3.9199999999999995,2.34438424297491
3.96,2.3486858349467417
4.0,2.351252787520642
4.04,2.3520780752365154
4.079999999999999,2.3511575311626514
4.12,2.348489851031195
4.16,2.3440766035543907
4.199999999999999,2.3379222470315746
4.24,2.3300341524630173
4.28,2.3204226334970484
4.319999999999999,2.309100983653382
4.36,2.296085521389674
4.4,2.2813956437120755
4.4399999999999995,2.2650538891757104
4.4799999999999995,2.2470860112794346
4.5200000000000005,2.227521063433115
4.56,2.2063914968665155
4.6,2.183733273058551
4.640000000000001,2.159585992495438
4.68,2.133993041816624
4.72,2.1070017616779264
4.76,2.0786636379499153
4.8,2.0490345191717774
4.84,2.0181748634882655
4.88,1.9861500185966792
4.92,1.9530305385012252
4.96,1.9188925410821112
5.0,1.8838181105910645
5.039999999999999,1.8478957491179735
5.08,1.8112208807434471
5.12,1.7738964113726305
5.159999999999999,1.7360333459648907
5.2,1.6977514628028216
5.24,1.6591800412853281
5.279999999999999,1.6204586351050687
5.319999999999999,1.5817378761200185
5.36,1.5431802852153866
5.3999999999999995,1.504961054399176
5.4399999999999995,1.4672687487409932
5.48,1.4303058571874125
5.52,1.3942890978232338
5.56,1.3594493566251407
5.6,1.3260311112605438
5.64,1.2942911669355026
5.68,1.2644965159597892
5.72,1.2369211353999379
5.76,1.2118415687720856
5.8,1.1895312092095367
5.84,1.1702533206115624
5.879999999999999,1.1542529992077184
5.92,1.1417484761836119
5.96,1.1329223608949557
5.999999999999999,1.1279135774524587
6.04,1.12681080441233
6.08,1.1296481500238693
6.119999999999999,1.1364035767649903
6.16,1.1470002619474384
6.2,1.1613107137745384
6.239999999999999,1.179163135636851
6.279999999999999,1.200349312995789
6.32,1.2246332195833833
6.359999999999999,1.2517595952965976
6.3999999999999995,1.2814618992278057
6.44,1.3134692375009984
6.4799999999999995,1.3475120612471991
6.52,1.3833265940033599
6.56,1.42065806572174
6.6,1.4592629017008731
6.64,1.4989100466205783
6.68,1.5393816072785351
6.72,1.5804729832038793
6.76,1.621992630717917
6.8,1.6637615793808815
6.84,1.7056127939652026
6.88,1.7473904522008885
6.92,1.7889491893839458
6.959999999999999,1.8301533455996952
7.0,1.8708762394525293
7.04,1.9109994832953465
7.08,1.9504123484599019
7.119999999999999,1.9890111843851523
7.16,2.0266988923758094
7.199999999999999,2.063384452630937
7.239999999999999,2.098982501871333
7.28,2.1334129581406667
7.32,2.166600688990367
7.359999999999999,2.1984752191574737
7.3999999999999995,2.2289704739169753
7.4399999999999995,2.258024554471823
7.4799999999999995,2.2855795419880907
7.52,2.311581327159783
7.5600000000000005,2.3359794624753185
7.599999999999999,2.3587270346431652
7.64,2.3797805549080633
7.68,2.3990998652480124
7.719999999999999,2.4166480586822945
7.76,2.4323914121425387
7.800000000000001,2.4462993305620833
7.839999999999999,2.4583443010251576
7.88,2.4685018559880505
7.92,2.476750544741446
7.959999999999999,2.483071912428508
8.0,2.4874504860688855
8.040000000000001,2.4898737671669204
8.08,2.490332230604925
8.12,2.4888193296414656
8.159999999999998,2.485331506952443
8.2,2.4798682117714885
8.24,2.47243192330796
8.28,2.463028180748398
8.32,2.451665620282874
8.36,2.4383560197444036
8.399999999999999,2.4231143516105895
8.44,2.4059588452954137
8.48,2.386911059859681
8.52,2.365995968495509
8.56,2.3432420563987764
8.6,2.318681433939123
8.639999999999999,2.2923499673768597
8.68,2.26428742976705
8.72,2.2345376751412833
8.76,2.2031488395758787
8.8,2.1701735733502723
8.84,2.135669309080021
8.879999999999999,2.0996985714822185
8.92,2.062329335302428
8.959999999999999,2.0236354388999
9.0,1.9836970620431515
9.040000000000001,1.9426012775853774
9.079999999999998,1.9004426878208713
9.12,1.8573241573846069
9.16,1.8133576554083213
9.2,1.7686652200662003
9.24,1.7233800582941023
9.280000000000001,1.677647791841397
9.32,1.631627857177437
9.36,1.5854950600781603
9.399999999999999,1.5394412745191184
9.44,1.4936772578834898
9.48,1.4484345280409894
9.52,1.4039672097479388
9.559999999999999,1.3605537051904206
9.6,1.3184979742262937
9.639999999999999,1.2781301241312946
9.68,1.2398059113190942
9.72,1.203904661708517
9.76,1.170825047417298
9.8,1.1409781552762852
9.84,1.1147773998524058
9.879999999999999,1.0926251236212958
9.92,1.0748962187404019
9.959999999999999,1.0619197675962793
10.0,1.0539604106420792
10.04,1.0512016972812892
10.079999999999998,1.0537338143753217
10.12,1.0615476536512234
10.16,1.0745362026003449
10.2,1.0925029755358526
10.24,1.115176024675661
10.280000000000001,1.142225324859567
10.319999999999999,1.1732811605738933
10.36,1.2079514891769036
10.4,1.2458368949095198
10.44,1.2865424466242759
10.48,1.3296863565704469
10.52,1.3749057316444595
10.559999999999999,1.421859913255162
10.6,1.4702319602769196
10.639999999999999,1.5197287952151197
10.68,1.5700804530206571
10.72,1.6210387773169868
10.76,1.6723758190353735
10.799999999999999,1.7238821164067546
10.84,1.7753649753876757
10.879999999999999,1.8266468249390357
10.92,1.8775636897013301
10.96,1.9279638007517683
11.0,1.9777063507413242
11.04,2.0266603906864926
11.08,2.074703860394002
11.12,2.1217227417128406
11.16,2.1676103226628975
11.2,2.2122665603740175
11.24,2.2555975312668055
11.28,2.2975149577401477
11.319999999999999,2.3379358016205267
11.36,2.3767819156617556
11.4,2.4139797453927065
11.44,2.449460074557374
11.48,2.483157808256407
11.52,2.5150117886761625
11.559999999999999,2.5449646389803724
11.6,2.572962631545543
11.64,2.5989555772514614
11.68,2.6228967330001502
11.72,2.644742725038739
11.759999999999998,2.664453486011489
11.799999999999999,2.6819922039708537
11.84,2.697325281843942
11.879999999999999,2.7104223060842223
11.92,2.7212560234451053
11.96,2.7298023249959518
11.999999999999998,2.736040236666967
12.04,2.739951915761057
12.08,2.741522653011366
12.12,2.740740879896581
12.16,2.737598181054991
12.200000000000001,2.7320893117661984
12.239999999999998,2.724212220598976
12.28,2.7139680774591204
12.32,2.7013613074148597
12.36,2.686399630834489
12.4,2.6690941105449437
12.44,2.6494592069170624
12.479999999999999,2.627512842008833
12.52,2.6032764741598804
12.559999999999999,2.5767751847373512
12.6,2.548037779096245
12.64,2.5170969042491755
12.68,2.4839891862579044
12.719999999999999,2.4487553909816238
12.76,2.411440612569625
12.799999999999999,2.3720944949989544
12.84,2.330771493068523
12.88,2.2875311806161442
12.92,2.242438615380142
12.959999999999999,2.1955647719520077
12.999999999999998,2.146987056742994
13.04,2.0967899219140143
13.08,2.0450655989072293
13.12,1.9919149766945436
13.16,1.9374486552509589
13.2,1.881788211183248
13.239999999999998,1.8250677199587835
13.28,1.7674355877307912
13.32,1.7090567550544853
13.36,1.6501153441070786
13.4,1.5908178288653343
13.44,1.5313968112452268
13.479999999999999,1.4721154804982963
13.52,1.4132728098078002
13.559999999999999,1.3552094895322022
13.6,1.2983144902622576
13.64,1.2430319613960499
13.68,1.1898678648670806
13.719999999999999,1.1393952808007306
13.76,1.0922566845752861
13.799999999999999,1.049160731130454
13.84,1.0108703804724761
13.88,0.9781789692926416
13.919999999999998,0.9518717245109557
13.959999999999999,0.9326728988055965
14.0,0.9211833227054537
14.04,0.9178185663177427
14.08,0.9227614525637738
14.120000000000001,0.9359414612428356
14.16,0.9570468126557123
14.2,0.9855654517039851
14.239999999999998,1.020843513205606
14.28,1.062147462199003
14.32,1.1087188250655329
14.36,1.1598156028838351
14.399999999999999,1.214739292793907
14.44,1.27284949910099
14.479999999999999,1.3335693270511801
14.52,1.3963847223481543
14.56,1.4608403091227173
14.6,1.5265335388726586
14.64,1.5931083157775587
14.68,1.6602487797477194
14.719999999999999,1.7276736008481872
14.76,1.7951309333300265
14.799999999999999,1.8623940577742093
14.84,1.9292576758563365
14.879999999999999,1.9955347924156612
14.919999999999998,2.0610541094965273
14.959999999999999,2.1256578577638403
15.0,2.1891999967117193
15.04,2.2515447232332133
15.079999999999998,2.3125652366714573
15.120000000000001,2.372142716551356
15.159999999999998,2.43016547640771
15.199999999999998,2.4865282633618233
15.24,2.5411316783759785
15.28,2.593881696520963
15.319999999999999,2.644689270238018
15.36,2.6934700015772752
15.399999999999999,2.7401438718563247
15.439999999999998,2.7846350191983427
15.48,2.826871556059403
15.52,2.86678542020621
15.559999999999999,2.9043122537136608
15.600000000000001,2.9393913054623932
15.639999999999999,2.9719653533661576
15.679999999999998,3.001980643178285
15.72,3.0293868412396674
15.76,3.054136998957683
15.799999999999999,3.076187527162281
15.84,3.0954981787854585
15.879999999999999,3.112032038563878
15.919999999999998,3.1257555186807138
15.96,3.1366383594488743
16.0,3.144653634299757
16.04,3.1497777584849675
16.080000000000002,3.1519905010269627
16.12,3.151274999572844
16.16,3.1476177779164076
16.200000000000003,3.14100876606095
16.24,3.1314413228020217
16.279999999999998,3.11891226091874
16.319999999999997,3.1034218751779545
16.36,3.08497397348123
16.4,3.063575911624723
16.439999999999998,3.03923863230167
16.48,3.0119767091629455
16.52,2.981808396970157
16.56,2.9487556891382853
16.6,2.9128443842825296
16.64,2.8741041637728233
16.68,2.8325686827790126
16.72,2.788275677886505
16.759999999999998,2.741267095109414
16.799999999999997,2.6915892430715687
16.84,2.639292977323575
16.88,2.5844339232957028
16.919999999999998,2.527072747357859
16.96,2.46727548801168
17.0,2.4051139625709452
17.04,2.3406662690601734
17.080000000000002,2.2740174088435703
17.12,2.205260063193177
17.16,2.1344955673200054
17.2,2.0618351393087035
17.24,1.9874014402931297
17.279999999999998,1.911330568021884
17.32,1.8337746213990187
17.36,1.7549050224171052
17.4,1.6749168492988165
17.44,1.5940345275195964
17.48,1.5125193523695994
17.52,1.4306794874698066
17.56,1.348883305587636
17.6,1.267577207250394
17.64,1.1873093309962985
17.68,1.108760732421643
17.72,1.0327853372141567
17.759999999999998,0.9604585442584577
17.799999999999997,0.8931303441755017
17.84,0.8324699390916368
17.88,0.780472930909782
17.919999999999998,0.7393816316594569
17.96,0.7114607988688247
18.0,0.6986117063927794
18.04,0.7019206245280526
18.080000000000002,0.7213557577192049
18.12,0.7557970228278559
18.159999999999997,0.8033762284910945
18.2,0.8619228504910541
18.24,0.9293189996429373
18.279999999999998,1.0036934687856198
18.32,1.0834837504163184
18.36,1.1674228061131064
18.4,1.2544951308661383
18.44,1.3438870208124962
18.48,1.434941843446122
18.52,1.5271235220174617
18.560000000000002,1.619988107687431
18.6,1.713162165560484
18.64,1.8063265169816514
18.679999999999996,1.8992040513519692
18.72,1.9915505794629762
18.759999999999998,2.0831479449601544
18.799999999999997,2.1737988107758928
18.84,2.263322691123922
18.88,2.351552914026324
18.919999999999998,2.438334283109625
18.96,2.523521268337394
19.0,2.606976599601101
19.04,2.688570169288755
19.080000000000002,2.7681781734653286
19.119999999999997,2.845682438559362
19.159999999999997,2.9209698931932326
19.2,2.9939321542631934
19.24,3.064465203456157
19.279999999999998,3.1324691357215246
19.32,3.19784796525671
19.36,3.260509477647729
19.4,3.320365119172945
19.44,3.3773299161074055
19.48,3.4313224182873134
19.52,3.4822646623067683
19.560000000000002,3.530082150594551
19.6,3.574703843311617
19.639999999999997,3.6160621605614875
19.68,3.654092992847574
19.72,3.6887357180665203
19.759999999999998,3.719933223614775
19.8,3.7476319324196345
19.84,3.7717818318980902
19.88,3.7923365050049336
19.919999999999998,3.809253162663045
19.96,3.8224926769786127
20.0,3.832019614736923
20.04,3.8378022707534756
20.08,3.8398127007237512
20.119999999999997,3.838026753274846
20.159999999999997,3.832424100976042
20.2,3.8229882701143056
20.24,3.809706669086828
20.279999999999998,3.7925706153069485
20.32,3.7715753605643365
20.36,3.7467201148256257
20.4,3.718008068510636
20.44,3.6854464133326243
20.48,3.649046361851774
20.52,3.6088231659615126
20.560000000000002,3.5647961346111257
20.599999999999998,3.516988651169548
20.639999999999997,3.4654281909602984
20.68,3.410146339653644
20.72,3.3511788133997618
20.759999999999998,3.288565481839529
20.8,3.222350395456783
20.84,3.1525818191636428
20.88,3.0793122745754435
20.92,3.0025985941856383
20.96,2.9225019916678026
21.0,2.8390881539180484
21.04,2.752427362363571
21.08,2.6625946537329037
21.119999999999997,2.5696700342604624
21.159999999999997,2.4737387667155093
21.2,2.3748917575335984
21.24,2.2732260830007647
21.279999999999998,2.1688457110182138
21.32,2.061862501955847
21.36,1.952397614390785
21.4,1.840583509340005
21.44,1.7265668581181028
21.48,1.610512847528902
21.52,1.492611704963645
21.56,1.3730888594680677
21.599999999999998,1.2522212674263196
21.639999999999997,1.1303646070046507
21.68,1.008000500572918
21.72,0.8858225089832001
21.759999999999998,0.7649012970766955
21.8,0.6470201884706157
21.84,0.5353906510449857
21.88,0.4361828014907895
21.92,0.3612512244906322
21.96,0.32906251040535794
22.0,0.3526397622347827
22.04,0.42348367957232036
22.08,0.5231677683412769
22.119999999999997,0.6385722014947972
22.16,0.7627033866033891
22.2,0.8919321746017871
22.24,1.024260197092489
22.28,1.1584947872009845
22.32,1.2938635323482472
22.36,1.429826327948678
22.4,1.5659785216184574
22.44,1.7019982448121838
22.48,1.8376163567351034
22.519999999999996,1.9725985546239018
22.56,2.1067343324654724
22.599999999999998,2.2398299525482086
22.639999999999997,2.3717038533910872
22.68,2.5021835842505458
22.72,2.631103723306874
22.759999999999998,2.7583044457307913
22.8,2.8836305308013377
22.84,3.0069306716437745
22.88,3.1280569973364356
22.92,3.2468647464756146
22.96,3.363212050327762
23.0,3.476959796296205
23.04,3.5879715509143058
23.08,3.6961135273853785
23.119999999999997,3.8012545867268797
23.16,3.9032662644211933
23.2,4.0020228165067575
23.24,4.0974012805110585
23.28,4.1892815476997605
23.32,4.277546443908614
23.36,4.362081816815759
23.400000000000002,4.4427766279572545
23.44,4.519523048126749
23.479999999999997,4.592216555059464
23.519999999999996,4.660756032500799
23.56,4.725043869915902
23.599999999999998,4.784986062218822
23.639999999999997,4.840492308996748
23.68,4.891476112781886
23.72,4.937854875985441
23.759999999999998,4.979549996158336
23.8,5.016486959284109
23.84,5.048595430842998
23.88,5.075809344414241
23.92,5.098066987606764
23.96,5.115311085128309
23.999999999999996,5.127488878819744
24.04,5.13455220449606
24.08,5.136457565447918
24.119999999999997,5.133166202469196
24.16,5.12464416028574
24.2,5.110862350269809
24.24,5.0917966093330085
24.28,5.067427754898342
24.32,5.037741635859465
24.36,5.00272917944224
24.400000000000002,4.962386433890823
24.439999999999998,4.916714606907224
24.479999999999997,4.865720099780417
24.52,4.809414537148187
24.56,4.747814792342446
24.599999999999998,4.680943008276886
24.64,4.608826613844522
24.68,4.5314983358028105
24.72,4.448996206135163
24.759999999999998,4.361363564891258
24.8,4.2686490585245105
24.84,4.170906633765108
24.88,4.0681955270922465
24.92,3.960580249901732
24.959999999999997,3.8481305695085073
24.999999999999996,3.7309214861820195
25.04,3.609033206492853
25.08,3.4825511133626788
25.119999999999997,3.3515657333721225
25.16,3.216172702119649
25.2,3.0764727287807476
25.24,2.9325715615609744
25.28,2.7845799565873186
25.32,2.6326136541462604
25.36,2.4767933684253576
25.4,2.317244800735291
25.439999999999998,2.154098692910021
25.479999999999997,1.9874909498768007
25.52,1.8175628839170226
25.56,1.6444616806000625
25.599999999999998,1.4683412882547031
25.64,1.289364168570636
25.68,1.1077049441169455
25.72,0.9235586853572371
25.76,0.7371622652358821
25.8,0.548860739954033
25.84,0.3593869790437275
25.880000000000003,0.17201410418525662
25.919999999999998,0.06885891939134438
25.959999999999997,0.23783223316559085
25.999999999999996,0.43212850595707863
26.04,0.6298036812716713
26.08,0.8291112999317954
26.119999999999997,1.0294964218583798
26.16,1.2306365885793338
26.2,1.432279020367481
26.24,1.634196898849954
26.28,1.8361742596389248
26.32,2.0379998714820724
26.36,2.239464486582648
26.4,2.4403595284658004
26.439999999999998,2.640476455811714
26.479999999999997,2.839606469824193
26.52,3.0375404076825023
26.56,3.2340687423533803
26.599999999999998,3.4289816460762
26.64,3.622069093544766
26.68,3.8131209907433212
26.72,4.001927320898502
26.76,4.188278302174741
26.8,4.37196455362099
26.84,4.552777267027104
26.88,4.7305083830696475
26.919999999999998,4.904950770590445
26.959999999999997,5.075898408154943
27.0,5.243146567240428
27.04,5.406491996542215
27.08,5.565733106981172
27.119999999999997,5.720670157062873
27.16,5.871105438286112
27.2,6.016843460332996
27.24,6.157691135797775
27.28,6.293457964230375
27.32,6.423956215284552
27.36,6.549001110771565
27.4,6.668411005428677
27.439999999999998,6.782007566218763
27.479999999999997,6.88961594998286
27.52,6.991064979272544
27.56,7.086187316193177
27.599999999999998,7.174819634093142
27.64,7.256802786937901
27.68,7.331981976211374
27.72,7.400206915190995
27.76,7.46133199044651
27.8,7.515216420416737
27.839999999999996,7.561724410922856
27.88,7.600725307481608
27.919999999999998,7.632093744286896
27.959999999999997,7.655709789734294
28.0,7.671459088369424
28.04,7.679232999148625
28.08,7.6789287299089795
28.12,7.670449467954579
28.16,7.653704506677395
28.2,7.6286093681448905
28.240000000000002,7.595085921602357
