Frequency (Hz),Amplitude
0.0,4.201694474455676
0.01993355481727575,4.19962480188184
0.0398671096345515,4.193417826326856
0.059800664451827246,4.183079672337146
0.079734219269103,4.168620540982659
0.09966777408637874,4.1500547001065655
0.11960132890365449,4.127400470696605
0.13953488372093023,4.100680209400268
0.159468438538206,4.069920287212666
0.17940199335548174,4.03515106437342
0.19933554817275748,3.9964068615164288
0.21926910299003324,3.953725927125153
0.23920265780730898,3.907150401355351
0.25913621262458475,3.8567262762980294
0.27906976744186046,3.8025033527676193
0.29900332225913623,3.7445351937148152
0.318936877076412,3.6828790743805633
0.3388704318936877,3.6175959293283975
0.3588039867109635,3.548750296517501
0.37873754152823924,3.476410258610552
0.39867109634551495,3.4006473817500193
0.4186046511627907,3.3215366520876035
0.4385382059800665,3.2391564104175794
0.4584717607973422,3.1535882853515624
0.47840531561461797,3.0649171255878516
0.49833887043189373,2.9732309319842365
0.5182724252491695,2.8786207903558916
0.5382059800664452,2.7811808062143974
0.5581395348837209,2.6810080430768672
0.5780730897009968,2.578202466562063
0.5980066445182725,2.472866897340152
0.6179401993355482,2.36510697725157
0.637873754152824,2.2550311547785524
0.6578073089700996,2.1427506989022818
0.6777408637873754,2.0283797548178097
0.6976744186046512,1.9120354620589706
0.717607973421927,1.79383816717446
0.7375415282392027,1.6739117826255294
0.7574750830564785,1.552384377578963
0.7774086378737541,1.4293891477161547
0.7973421926910299,1.3050660270494354
0.8172757475083057,1.1795644342853038
0.8372093023255814,1.0530481281274735
0.8571428571428572,0.9257042295684863
0.877076411960133,0.7977611186963159
0.8970099667774087,0.6695270982765386
0.9169435215946844,0.5414839475550492
0.9368770764119602,0.4145513368707092
0.9568106312292359,0.29101998059920187
0.9767441860465116,0.17908631254945495
0.9966777408637875,0.11917291266455668
1.0166112956810631,0.17651657195353546
1.036544850498339,0.2878838367432505
1.0564784053156147,0.411290255383403
1.0764119601328903,0.5382100929919825
1.0963455149501662,0.6662865800548761
1.1162790697674418,0.7945811212809936
1.1362126245847177,0.922604934018401
1.1561461794019936,1.050046589322388
1.176079734219269,1.1766760783242418
1.196013289036545,1.302305302594438
1.2159468438538206,1.4267698329699456
1.2358803986710964,1.5499197318509994
1.255813953488372,1.6716146218569188
1.275747508305648,1.7917208997917653
1.2956810631229239,1.9101101030519754
1.3156146179401993,2.026657927386197
1.3355481727574752,2.141243628805324
1.3554817275747508,2.25374966033613
1.3754152823920267,2.3640614567571046
1.3953488372093024,2.4720673149750847
1.4152823920265782,2.5776583375086006
1.435215946843854,2.680728418288629
1.4551495016611296,2.7811742571574016
1.4750830564784054,2.878895393938513
1.495016611295681,2.9737942558335555
1.514950166112957,3.0657762137890394
1.5348837209302328,3.154749644739041
1.5548172757475083,3.2406259974873564
1.5747508305647842,3.3233198605862695
1.5946843853820598,3.4027490309858828
1.6146179401993357,3.4788345825248754
1.6345514950166113,3.5515009335480037
1.6544850498338872,3.6206759130927746
1.6744186046511629,3.6862908252039954
1.6943521594684385,3.74828051102259
1.7142857142857144,3.8065834083613446
1.73421926910299,3.8611416085316703
1.754152823920266,3.911900910225429
1.7740863787375416,3.9588108702875098
1.7940199335548175,4.00182485124044
1.8139534883720931,4.040900065442821
1.8338870431893688,4.075997615780813
1.8538205980066447,4.10708253280607
1.8737541528239203,4.134123808246187
1.893687707641196,4.157094424824169
1.9136212624584719,4.1759713823332465
1.9335548172757475,4.190735719921664
1.9534883720930232,4.201372534550125
1.9734219269102993,4.207870995591732
1.993355481727575,4.2102243555511105
2.0132890365448506,4.208429956886092
2.0332225913621262,4.202489234921577
2.0531561461794023,4.192407716851514
2.073089700996678,4.178195016831161
2.0930232558139537,4.1598648271680725
2.1129568106312293,4.137434905626599
2.132890365448505,4.110927058867457
2.1528239202657806,4.080367122050707
2.1727574750830567,4.045784934638005
2.1926910299003324,4.007214312437897
2.212624584717608,3.9646930159466827
2.2325581395348837,3.9182627150471516
2.25249169435216,3.8679689501384993
2.2724252491694354,3.813861089783443
2.292358803986711,3.755992284973459
2.312292358803987,3.6944194201307043
2.332225913621263,3.6292030609867205
2.352159468438538,3.560407399504168
2.3720930232558137,3.48810019604065
2.39202657807309,3.4123527189951384
2.4119601328903655,3.3332396822303947
2.431893687707641,3.2508391806336947
2.4518272425249172,3.1652326242685387
2.471760797342193,3.0765046716904063
2.4916943521594686,2.984743163161851
2.511627906976744,2.8900390547238715
2.5315614617940203,2.7924863543868086
2.551495016611296,2.6921820621341404
2.5714285714285716,2.589226116044069
2.5913621262458477,2.4837213477178035
2.611295681063123,2.3757734515017153
2.6312292358803986,2.2654909739318265
2.6511627906976742,2.1529853327882345
2.6710963455149503,2.0383708797544013
2.691029900332226,1.92176502801895
2.7109634551495017,1.8032884781668945
2.7308970099667778,1.6830655959253276
2.7508305647840534,1.5612250304940223
2.770764119601329,1.437900725659325
2.7906976744186047,1.3132335953968564
2.810631229235881,1.1873743720127252
2.8305647840531565,1.060488629956442
2.850498338870432,0.9327660989843134
2.870431893687708,0.8044390867323041
2.8903654485049834,0.6758221385032964
2.910299003322259,0.5474075416981088
2.9302325581395348,0.4201333365317407
2.950166112956811,0.29631810541176634
2.9700996677740865,0.18410458142184466
2.990033222591362,0.12250515328532989
3.0099667774086383,0.17672233435804935
3.029900332225914,0.2872512927351018
3.0498338870431896,0.41068956519741084
3.0697674418604657,0.5379238073090564
3.089700996677741,0.6664374104311249
3.1096345514950166,0.79523526169752
3.129568106312292,0.9238038972780619
3.1495016611295683,1.0518193070815922
3.169435215946844,1.1790442499081994
3.1893687707641196,1.305286035818385
3.2093023255813957,1.4303770611493802
3.2292358803986714,1.5541650245190897
3.249169435215947,1.6765076725019246
3.2691029900332227,1.7972698311734734
3.289036544850499,1.9163216644408654
3.3089700996677744,2.033537625200571
3.32890365448505,2.1487958148533375
3.3488372093023258,2.261977592349001
3.3687707641196014,2.372967340428561
3.388704318936877,2.4816523334621605
3.4086378737541527,2.5879226723442152
3.428571428571429,2.6916712643883383
3.4485049833887045,2.792793833780288
3.46843853820598,2.8911889529166266
3.4883720930232562,2.986758088014886
3.508305647840532,3.079405654384119
3.5282392026578075,3.1690390780823496
3.548172757475083,3.255568861597142
3.5681063122923593,3.3389086518139552
3.588039867109635,3.4189753089784083
3.60797342192691,3.495688975672784
3.6279069767441863,3.5689731450539806
3.647840531561462,3.638754727766258
3.6677740863787376,3.7049641170649568
3.6877076411960132,3.7675352517799507
3.7076411960132893,3.8264056768174894
3.727574750830565,3.881516600953333
3.7475083056478407,3.9328129517120614
3.7674418604651168,3.9802434271607945
3.787375415282392,4.023760544472271
3.807308970099668,4.063320685133924
3.8272425249169437,4.098884136697556
3.8471760797342194,4.130415130979294
3.867109634551495,4.157881878632388
3.887043189368771,4.181256600026501
3.9069767441860463,4.200515552377184
3.9269102990033224,4.215639053077883
3.9468438538205985,4.226611499195028
3.9667774086378738,4.233421383094279
3.98671096345515,4.236061304173015
4.0066445182724255,4.234527976680937
4.026578073089701,4.228822233617201
4.046511627906977,4.2189490266990335
4.0664451827242525,4.20491742240306
4.086378737541528,4.186740594087206
4.106312292358805,4.164435810207586
4.1262458471760795,4.138024418651748
4.146179401993356,4.107531827216836
4.166112956810632,4.072987480269025
4.186046511627907,4.03442483162896
4.205980066445183,3.9918813137371347
4.225913621262459,3.9453983031635596
4.245847176079734,3.895021082537773
4.26578073089701,3.840798798988831
4.2857142857142865,3.7827844192010374
4.305647840531561,3.721034681210037
4.325581395348838,3.6556100430872784
4.345514950166113,3.5865746286892137
4.365448504983389,3.5139961706832286
4.385382059800665,3.437945951107384
4.40531561461794,3.358498739778763
4.425249169435216,3.2757327309403657
4.445182724252492,3.18972947863512
4.465116279069767,3.100573831427194
4.485049833887043,3.008353867267907
4.50498338870432,2.9131608295457996
4.524916943521594,2.81508906569524
4.544850498338871,2.7142359702076035
4.5647840531561465,2.6107019345573064
4.584717607973422,2.504590307519995
4.604651162790698,2.396007370777375
4.624584717607974,2.285062336820795
4.644518272425249,2.171867379392264
4.664451827242526,2.056537711721464
4.6843853820598005,1.9391917358122617
4.704318936877076,1.8199512990963278
4.724252491694353,1.6989421167443843
4.7441860465116275,1.5762944560991288
4.764119601328904,1.4521442484985567
4.78405315614618,1.3266349231078847
4.803986710963455,1.1999205126942576
4.823920265780731,1.0721711148362425
4.8438538205980075,0.943582985335916
4.863787375415282,0.8143984373272901
4.883720930232559,0.6849485004022097
4.9036544850498345,0.5557550509854263
4.92358803986711,0.42781485235607836
4.943521594684386,0.30357470913381596
4.963455149501661,0.19141522216122417
4.983388704318937,0.12927832884137405
5.003322259136213,0.1802152328547396
5.023255813953488,0.2896441500783349
5.043189368770764,0.41325657483574124
5.063122923588041,0.5411274861363619
5.083056478405315,0.6704838482124753
5.102990033222592,0.8002336967947355
5.122923588039868,0.929819629504111
5.142857142857143,1.0588946907130505
5.162790697674419,1.1872082526260517
5.182724252491695,1.3145590673773955
5.20265780730897,1.4407736154717639
5.222591362126246,1.565695219431196
5.242524916943522,1.689178193891799
5.262458471760797,1.811084536765949
5.282392026578074,1.931281983825425
5.3023255813953485,2.0496428331195244
5.322259136212625,2.166043223083629
5.342192691029901,2.2803626878824157
5.362126245847176,2.3924838874411285
5.382059800664452,2.502292450434283
5.4019933554817285,2.6096768918998845
5.421926910299003,2.7145285810090334
5.44186046511628,2.816741742976666
5.4617940199335555,2.916213484393214
5.48172757475083,3.012843834650826
5.501661129568107,3.106535798359976
5.5215946843853825,3.197195415136029
5.541528239202658,3.2847318241438175
5.561461794019934,3.369057331485156
5.5813953488372094,3.4500874790031313
5.601328903654485,3.5277411134251158
5.621262458471762,3.6019404550175667
5.641196013289036,3.672611165109468
5.661129568106313,3.7396824119770207
5.681063122923589,3.8030869346844107
5.700996677740864,3.8627611045526242
5.72093023255814,3.9186449839879285
5.740863787375416,3.9706823824478557
5.760797342192691,4.01882090935902
5.780730897009967,4.063012023830414
5.800664451827243,4.103211081029401
5.820598006644518,4.139377375107135
5.840531561461795,4.1714741785766085
5.8604651162790695,4.1994687780601625
5.880398671096346,4.223332506335495
5.900332225913622,4.2430407706196815
5.920265780730897,4.258573077040103
5.940199335548173,4.2699130512498735
5.960132890365449,4.277048455153236
5.980066445182724,4.279971199713853
6.0,4.278677353826149
6.0199335548172765,4.273167149236552
6.039867109634551,4.263444981508665
6.059800664451828,4.2495194070327065
6.0797342192691035,4.231403136086831
6.099667774086379,4.209113021964768
6.119601328903655,4.182670046191647
6.139534883720931,4.152099299857575
6.159468438538206,4.1174299611070175
6.179401993355482,4.078695268830855
6.1993355481727574,4.035932492618433
6.219269102990033,3.989182899037835
6.23920265780731,3.938491714326038
6.259136212624584,3.8839080835852378
6.279069767441861,3.8254850265999694
6.299003322259137,3.763279390410623
6.318936877076412,3.697351798805313
6.338870431893688,3.627766598924199
6.3588039867109645,3.554591805210753
6.378737541528239,3.477899040995584
6.398671096345516,3.3977634780644608
6.418604651162791,3.314263774647603
6.438538205980066,3.227482012380225
6.458471760797343,3.1375036329345902
6.4784053156146175,3.0444173752265664
6.498338870431894,2.9483152143767337
6.51827242524917,2.8492923039892304
6.538205980066445,2.7474469238490826
6.558139534883721,2.642880435903072
6.578073089700998,2.535697252493264
6.598006644518272,2.4260048224325756
6.617940199335549,2.3139136429323908
6.6378737541528245,2.199537309077974
6.6578073089701,2.08299261827889
6.677740863787376,1.9643997562429887
6.6976744186046515,1.84388260591513
6.717607973421927,1.7215692458464478
6.737541528239203,1.5975927478852048
6.7574750830564785,1.4720924622454301
6.777408637873754,1.3452161247145884
6.797342192691031,1.2171234097502823
6.8172757475083055,1.0879921556094654
6.837209302325582,0.9580298304661283
6.857142857142858,0.8274960539888965
6.877076411960133,0.6967506537278301
6.897009966777409,0.5663679559793803
6.9169435215946855,0.43745128104419084
6.93687707641196,0.3126915961957732
6.956810631229236,0.20102410443087285
6.9767441860465125,0.1397349127047851
6.996677740863787,0.18771283987874487
7.016611295681064,0.29582412631965604
7.036544850498339,0.41973746188456795
7.056478405315615,0.5485633147793816
7.076411960132891,0.6791750723822017
7.096345514950166,0.8103396995188653
7.116279069767442,0.9414339952685726
7.136212624584719,1.0720760951204884
7.156146179401993,1.2019948250684334
7.17607973421927,1.3309757536527385
7.196013289036546,1.4588362525922736
7.21594684385382,1.585412933535971
7.235880398671097,1.7105548840648748
7.2558139534883725,1.834119832691687
7.275747508305648,1.9559718866048885
7.295681063122924,2.075980157964838
7.3156146179402,2.1940179141385965
7.335548172757475,2.3099620482850898
7.355481727574752,2.4236927519460787
7.3754152823920265,2.5350933183927835
7.395348837209303,2.644050032483308
7.415282392026579,2.7504521187882753
7.435215946843854,2.8541917295045214
7.45514950166113,2.9551639597899393
7.475083056478406,3.053266882071191
7.495016611295681,3.14840159344242
7.514950166112956,3.240472271986042
7.5348837209302335,3.329386239011303
7.554817275747508,3.4150540250106505
7.574750830564784,3.497389437698294
7.5946843853820605,3.5763096308969167
7.614617940199336,3.6517351733281487
7.634551495016611,3.7235901165742002
7.6544850498338874,3.7918020616343586
7.674418604651163,3.8563022236176185
7.694352159468439,3.917025494201459
7.714285714285715,3.973910501554917
7.73421926910299,4.0268996674772675
7.754152823920266,4.075939261545056
7.774086378737542,4.120979452093634
7.794019933554818,4.161974353886056
7.813953488372093,4.198882072344224
7.83388704318937,4.23166474423555
7.853820598006645,4.260288574723863
7.8737541528239205,4.284723870706427
7.893687707641197,4.304945070370994
7.913621262458472,4.320930768916761
7.9335548172757475,4.332663740392663
7.953488372093024,4.340130955615184
7.9734219269103,4.343323596135754
7.9933554817275745,4.342237064235592
8.013289036544851,4.3368709889334
8.033222591362128,4.32722922799861
8.053156146179402,4.3133198659700485
8.073089700996679,4.295155208187733
8.093023255813954,4.272751770852694
8.11295681063123,4.246130267138199
8.132890365448505,4.21531558938401
8.152823920265782,4.18033678741472
8.172757475083056,4.141227043033186
8.192691029900331,4.098023640751708
8.21262458471761,4.050767934836113
8.232558139534884,3.9995053127530547
8.252491694352159,3.9442851551280365
8.272425249169435,3.885160792342443
8.292358803986712,3.8221894579227818
8.312292358803987,3.755432238905973
8.332225913621263,3.6849540234024034
8.352159468438538,3.610823445626226
8.372093023255815,3.5331128287229636
8.392026578073091,3.451898125802921
8.411960132890366,3.3672588596904616
8.43189368770764,3.279278062034037
8.451827242524917,3.1880422126007484
8.471760797342194,3.093641179821661
8.491694352159469,2.996168163984678
8.511627906976745,2.895719644929763
8.53156146179402,2.7923953367434864
8.551495016611296,2.6862981528632237
8.571428571428573,2.5775341863203534
8.591362126245848,2.4662127117871617
8.611295681063122,2.3524462189826987
8.6312292358804,2.236350491392101
8.651162790697676,2.1180447510919826
8.67109634551495,1.9976519013498333
8.691029900332227,1.8752989164100609
8.710963455149502,1.751117457669372
8.730897009966778,1.6252448470863978
8.750830564784053,1.4978256215054342
8.77076411960133,1.369014065535824
8.790697674418604,1.2389784626161056
8.81063122923588,1.1079085148982755
8.830564784053157,0.9760289620033131
8.850498338870432,0.8436262278226608
8.870431893687707,0.7111049977154856
8.890365448504983,0.5791217905642116
8.91029900332226,0.44894801256680905
8.930232558139535,0.3236631512258553
8.950166112956811,0.21311439032317547
8.970099667774086,0.15431082108218816
8.990033222591363,0.20017321810262498
9.00996677740864,0.306871700051671
9.029900332225914,0.43121387362098446
9.049833887043189,0.5613171469438202
9.069767441860467,0.6936133157128408
9.089700996677742,0.8266811032562116
9.109634551495017,0.9598066577800379
9.129568106312293,1.0925591624506845
9.14950166112957,1.2246383457950871
9.169435215946844,1.3558110191868384
9.189368770764121,1.485881586271382
9.209302325581396,1.6146771283503023
9.22923588039867,1.7420393462544181
9.249169435215949,1.867819974826625
9.269102990033224,1.991878065968859
9.289036544850498,2.114078329143515
9.308970099667773,2.234290096303338
9.328903654485051,2.3523866691255853
9.348837209302326,2.4682449076529416
9.368770764119601,2.581744975441674
9.388704318936878,2.6927701884630055
9.408637873754152,2.8012069340684516
9.428571428571429,2.9069446379694526
9.448504983388705,3.009875764474365
9.46843853820598,3.109895839903438
9.488372093023255,3.2069034921664
9.508305647840533,3.3008005015337516
9.528239202657808,3.3914918590240246
9.548172757475083,3.478885829790351
9.56810631229236,3.562894019564103
9.588039867109636,3.6434314426930836
9.60797342192691,3.7204165906578375
9.627906976744187,3.793771500202216
9.647840531561462,3.8634218204012694
9.667774086378738,3.929296878129193
9.687707641196015,3.9913297414959716
9.70764119601329,4.049457280902266
9.727574750830565,4.103620227425002
9.747508305647841,4.153763228295238
9.767441860465118,4.1998348992691525
9.787375415282392,4.2417878737243475
9.807308970099669,4.279578848339387
9.827242524916944,4.313168625235854
9.84717607973422,4.342522150479911
9.867109634551497,4.367608548855714
9.887043189368772,4.388401154836434
9.906976744186046,4.404877539690042
9.926910299003321,4.417019534667908
9.9468438538206,4.424813250233768
9.966777408637874,4.428249091299598
9.986710963455149,4.427321768443594
10.006644518272426,4.422030305093707
10.026578073089702,4.4123780406683055
10.046511627906977,4.398372629673629
10.066445182724253,4.380026036766188
10.086378737541528,4.357354527796579
10.106312292358805,4.3303786568605185
10.126245847176081,4.2991232493923786
10.146179401993356,4.2636173813472285
10.16611295681063,4.223894354529044
10.186046511627907,4.1799916681359095
10.205980066445184,4.13195098660832
10.225913621262459,4.079818103884002
10.245847176079735,4.023642904183757
10.26578073089701,3.9634793194774502
10.285714285714286,3.8993852838097114
10.305647840531563,3.831422684701906
10.325581395348838,3.759657311893654
10.345514950166113,3.6841588037454307
10.36544850498339,3.6050005916987815
10.385382059800666,3.5222598432871757
10.40531561461794,3.4360174043166536
10.425249169435217,3.346357741002037
10.445182724252492,3.2533688830669885
10.465116279069768,3.157142369116773
10.485049833887045,3.057773196003932
10.50498338870432,2.9553597744761255
10.524916943521594,2.850003894194155
10.544850498338871,2.7418107023443445
10.564784053156147,2.6308887017099543
10.584717607973422,2.5173497764735866
10.604651162790697,2.401309257617225
10.624584717607974,2.2828860452563746
10.64451827242525,2.162202813744191
10.664451827242525,2.039386338893451
10.684385382059801,1.9145680086995993
10.704318936877076,1.7878846159163966
10.724252491694353,1.6594795948664467
10.74418604651163,1.529504979846887
10.764119601328904,1.3981245776331042
10.784053156146179,1.2655192687152197
