Frequency (Hz),Amplitude
0.0,4.369250745755982
0.019801980198019802,4.3732072882246715
0.039603960396039604,4.38503991851815
0.0594059405940594,4.404638698875585
0.07920792079207921,4.431823838062794
0.09900990099009901,4.466350600755741
0.1188118811881188,4.507915715917539
0.13861386138613863,4.556164886945312
0.15841584158415842,4.610700975230034
0.1782178217821782,4.671092438708427
0.19801980198019803,4.736881650646777
0.21782178217821782,4.807592790656894
0.2376237623762376,4.882739078313181
0.25742574257425743,4.961829199372854
0.27722772277227725,5.044372847571061
0.297029702970297,5.129885366232836
0.31683168316831684,5.217891521212563
0.33663366336633666,5.307928469826611
0.3564356435643564,5.3995480108563125
0.37623762376237624,5.492318210559639
0.39603960396039606,5.585824501406575
0.4158415841584158,5.679670346318029
0.43564356435643564,5.773477553598546
0.45544554455445546,5.866886318159126
0.4752475247524752,5.959555054263605
0.495049504950495,6.0511600747589105
0.5148514851485149,6.1413951621208005
0.5346534653465347,6.229971067971657
0.5544554455445545,6.316614970149444
0.5742574257425742,6.401069909946982
0.594059405940594,6.483094226745646
0.613861386138614,6.562461002843435
0.6336633663366337,6.638957527706352
0.6534653465346534,6.712384788035961
0.6732673267326733,6.782556987826854
0.6930693069306931,6.849301100880507
0.7128712871287128,6.912456456952397
0.7326732673267327,6.971874361756047
0.7524752475247525,7.027417750362987
0.7722772277227723,7.078960873064675
0.7920792079207921,7.126389012454869
0.8118811881188118,7.1695982303112284
0.8316831683168316,7.208495142772918
0.8514851485148516,7.242996722303575
0.8712871287128713,7.2730301249763984
0.891089108910891,7.298532541707172
0.9108910891089109,7.319451072179627
0.9306930693069307,7.335742620347801
0.9504950495049505,7.347373810555397
0.9702970297029703,7.354320923478174
0.99009900990099,7.3565698512682065
1.00990099009901,7.354116071456354
1.0297029702970297,7.3469646393501735
1.0495049504950495,7.335130198845694
1.0693069306930694,7.318637011754482
1.0891089108910892,7.297519005928735
1.108910891089109,7.27181984264777
1.1287128712871286,7.241593003906129
1.1485148514851484,7.206901900415998
1.1683168316831685,7.167820001302048
1.188118811881188,7.124430986619915
1.2079207920792079,7.076828923969098
1.227722772277228,7.0251184705862295
1.2475247524752475,6.969415102390118
1.2673267326732673,6.909845371492861
1.2871287128712872,6.84654719367663
1.3069306930693068,6.779670167245103
1.3267326732673268,6.709375924467288
1.3465346534653466,6.635838516508423
1.3663366336633662,6.559244832250233
1.3861386138613863,6.479795050693581
1.405940594059406,6.397703125651967
1.4257425742574257,6.31319730011561
1.4455445544554455,6.226520645911236
1.4653465346534653,6.137931622005029
1.4851485148514851,6.047704641891056
1.504950495049505,5.956130636855583
1.5247524752475248,5.863517597389121
1.5445544554455446,5.770191069520673
1.5643564356435644,5.676494576276886
1.5841584158415842,5.582789926778724
1.6039603960396038,5.489457366710767
1.6237623762376237,5.396895514187432
1.6435643564356437,5.305521014731853
1.6633663366336633,5.215767838754894
1.683168316831683,5.128086135467781
1.7029702970297032,5.042940549857273
1.7227722772277227,4.960807905886847
1.7425742574257426,4.8821741615534835
1.7623762376237624,4.807530552219212
1.782178217821782,4.737368860204086
1.801980198019802,4.672175783108224
1.8217821782178218,4.612426421978841
1.8415841584158414,4.558576972955372
1.8613861386138615,4.511056779865219
1.881188118811881,4.4702599850900775
1.900990099009901,4.436537093694153
1.920792079207921,4.410186830790944
1.9405940594059405,4.391448712939181
1.9603960396039604,4.380496760598374
1.98019801980198,4.377434743456764
2.0,4.3822932725812755
2.01980198019802,4.395028938562861
2.0396039603960396,4.41552555549536
2.0594059405940595,4.443597423761135
2.0792079207920793,4.478994388697787
2.099009900990099,4.521408363648589
2.118811881188119,4.570480915853329
2.1386138613861387,4.625811486509071
2.1584158415841586,4.686965829725005
2.1782178217821784,4.753484301280473
2.1980198019801978,4.824889696286785
2.217821782178218,4.9006944136169475
2.237623762376238,4.980406804162124
2.257425742574257,5.063536631942282
2.2772277227722775,5.149599637078352
2.297029702970297,5.238121235550623
2.3168316831683167,5.3286394225717455
2.336633663366337,5.420706965760489
2.3564356435643563,5.513892983342652
2.376237623762376,5.60778400379557
2.3960396039603964,5.7019845990355185
2.4158415841584158,5.796117675443359
2.4356435643564356,5.889824497341961
2.455445544554456,5.982764507176608
2.4752475247524752,6.074614996435084
2.495049504950495,6.165070671805897
2.514851485148515,6.253843152504835
2.5346534653465347,6.34066042723144
2.5544554455445545,6.425266292860551
2.5742574257425743,6.507419791675127
2.594059405940594,6.586894659603863
2.6138613861386135,6.663478794429118
2.633663366336634,6.736973750153112
2.6534653465346536,6.807194261540992
2.673267326732673,6.87396780119203
2.6930693069306932,6.937134170232238
2.712871287128713,6.996545122794119
2.7326732673267324,7.052064023784029
2.7524752475247527,7.103565538980137
2.7722772277227725,7.150935356208169
2.792079207920792,7.194069936170888
2.811881188118812,7.23287629143241
2.8316831683168315,7.26727179205516
2.8514851485148514,7.29718399643916
2.8712871287128716,7.322550506003873
2.891089108910891,7.343318842474296
2.910891089108911,7.359446346673394
2.9306930693069306,7.37090009788015
2.9504950495049505,7.377656852978432
2.9702970297029703,7.379703004795356
2.99009900990099,7.377034559205516
3.00990099009901,7.369657130758425
3.0297029702970297,7.35758595676765
3.0495049504950495,7.340845929983439
3.0693069306930694,7.319471650151381
3.089108910891089,7.293507494940125
3.108910891089109,7.263007710897507
3.128712871287129,7.22803652526621
3.148514851485148,7.188668279653657
3.1683168316831685,7.1449875867031185
3.1881188118811883,7.0970895110489005
3.2079207920792077,7.045079775950635
3.227722772277228,6.989074997082123
3.2475247524752473,6.929202944986278
3.267326732673267,6.865602837684188
3.2871287128712874,6.798425664824553
3.3069306930693068,6.727834544552558
3.3267326732673266,6.654005113936001
3.346534653465347,6.577125953269218
3.366336633663366,6.497399043835062
3.386138613861386,6.415040257682933
3.4059405940594063,6.33027987660489
3.4257425742574257,6.243363135680045
3.4455445544554455,6.154550784411559
3.4653465346534653,6.064119655494625
3.485148514851485,5.972363227508273
3.504950495049505,5.8795921632012496
3.5247524752475248,5.786134799428932
3.5445544554455446,5.692337558107382
3.564356435643564,5.598565239744223
3.5841584158415842,5.505201152225762
3.603960396039604,5.412647017761168
3.6237623762376234,5.321322590563266
3.6435643564356437,5.231664907593223
3.6633663366336635,5.144127085443117
3.683168316831683,5.059176569493147
3.702970297029703,4.977292738587799
3.722772277227723,4.898963771752859
3.7425742574257423,4.824682695322857
3.762376237623762,4.754942551696219
3.7821782178217824,4.690230666839213
3.801980198019802,4.631022043731322
3.8217821782178216,4.577771972673273
3.841584158415842,4.530908023952186
3.8613861386138613,4.490821668177227
3.881188118811881,4.457859846235796
3.9009900990099013,4.432316873641989
3.9207920792079207,4.414427101634849
3.9405940594059405,4.404358759637208
3.96039603960396,4.402209364247617
3.98019801980198,4.4080029982909945
4.0,4.421689645997774
4.01980198019802,4.443146629975797
4.03960396039604,4.472182049515452
4.0594059405940595,4.508539986271191
4.079207920792079,4.551907138381929
4.099009900990099,4.601920478171466
4.118811881188119,4.658175505420365
4.138613861386139,4.720234684872051
4.158415841584159,4.787635705066023
4.178217821782178,4.859899264905318
4.198019801980198,4.936536173242977
4.217821782178218,5.017053625312411
4.237623762376238,5.100960590658745
4.257425742574258,5.187772305862196
4.2772277227722775,5.277013909918853
4.297029702970297,5.368223290851402
4.316831683168317,5.460953230505025
4.336633663366336,5.554772942793988
4.356435643564357,5.649269101352117
4.376237623762377,5.7440464479180395
4.3960396039603955,5.838728064828485
4.415841584158416,5.932955385269929
4.435643564356436,6.026388004609101
4.455445544554455,6.118703345987402
4.475247524752476,6.209596223927244
4.4950495049504955,6.298778341240076
4.514851485148514,6.385977747164356
4.534653465346535,6.470938278404631
4.554455445544555,6.553418999531039
4.574257425742574,6.633193654931984
4.594059405940594,6.710050141076784
4.613861386138614,6.783790005120075
4.633663366336633,6.854227973751702
4.653465346534653,6.92119151456169
4.673267326732674,6.984520430958422
4.693069306930693,7.044066490769535
4.712871287128713,7.099693088006802
4.732673267326733,7.151274936828927
4.752475247524752,7.198697796449674
4.772277227722772,7.241858225573875
4.792079207920793,7.280663364873188
4.811881188118812,7.315030746014094
4.8316831683168315,7.344888125803632
4.851485148514852,7.370173344112119
4.871287128712871,7.390834204352598
4.891089108910891,7.406828375439806
4.910891089108912,7.418123314307744
4.930693069306931,7.424696208231461
4.9504950495049505,7.426533936372665
4.97029702970297,7.423633050146381
4.99009900990099,7.415999772186526
5.00990099009901,7.403650013870221
5.02970297029703,7.386609411542868
5.0495049504950495,7.364913381767322
5.069306930693069,7.338607196100234
5.089108910891089,7.30774607607393
5.108910891089109,7.272395309233382
5.128712871287129,7.232630387239022
5.148514851485149,7.188537167196726
5.1683168316831685,7.140212057507596
5.188118811881188,7.087762229638759
5.207920792079208,7.031305857289411
5.227722772277227,6.970972384454159
5.247524752475248,6.906902823850949
5.267326732673268,6.8392500870639665
5.2871287128712865,6.768179347526554
5.306930693069307,6.69386843710321
5.326732673267327,6.616508276482463
5.346534653465346,6.536303338814931
5.366336633663367,6.4534721449614905
5.3861386138613865,6.368247787284716
5.405940594059405,6.280878477036166
5.425742574257426,6.1916281079663165
5.445544554455446,6.100776825703309
5.465346534653465,6.008621588594505
5.485148514851486,5.915476700962692
5.504950495049505,5.82167429398838
5.524752475247524,5.727564722609144
5.544554455445545,5.6335168388981
5.564356435643565,5.539918093404834
5.584158415841584,5.447174406108315
5.603960396039604,5.355709738326727
5.623762376237624,5.265965286801616
5.643564356435643,5.178398212192263
5.663366336633663,5.093479807743774
5.683168316831684,5.011693011695208
5.702970297029703,4.933529171226776
5.7227722772277225,4.859483978804814
5.742574257425743,4.790052526058548
5.762376237623762,4.725723457766103
5.782178217821782,4.666972260077366
5.801980198019803,4.614253782006942
5.821782178217822,4.567994164387138
5.841584158415841,4.528582429987646
5.861386138613861,4.496362063729313
5.881188118811881,4.471622972129565
5.900990099009901,4.454594245035461
5.920792079207921,4.44543814061506
5.9405940594059405,4.444245670738114
5.96039603960396,4.451034078483909
5.98019801980198,4.465746379640005
6.0,4.488252999015886
6.01980198019802,4.518355387535571
6.03960396039604,4.55579137547866
6.0594059405940595,4.6002419162355634
6.079207920792079,4.651338813357228
6.099009900990099,4.70867300452917
6.118811881188119,4.771802995909971
6.138613861386139,4.840263090706276
6.158415841584159,4.913571126010283
6.178217821782178,4.991235510648743
6.198019801980198,5.072761434461778
6.217821782178218,5.157656188983728
6.237623762376237,5.245433596712665
6.257425742574258,5.335617589377159
6.2772277227722775,5.427745005152422
6.297029702970296,5.521367692247737
6.316831683168317,5.616054013937504
6.336633663366337,5.711389850368595
6.356435643564356,5.8069791876127255
6.376237623762377,5.902444376377609
6.396039603960396,5.997426133066725
6.415841584158415,6.091583345612536
6.435643564356436,6.184592736469898
6.455445544554456,6.276148425832787
6.475247524752475,6.365961429793975
6.495049504950495,6.453759120912724
6.514851485148515,6.539284672494565
6.534653465346534,6.622296502757992
6.554455445544554,6.702567730865057
6.574257425742575,6.779885653413585
6.594059405940594,6.854051247308549
6.6138613861386135,6.924878702837805
6.633663366336634,6.992194989170658
6.653465346534653,7.0558394532867785
6.673267326732673,7.11566345245093
6.693069306930694,7.171530019711157
6.712871287128713,7.223313561459796
6.732673267326732,7.270899585815929
6.752475247524753,7.314184460426828
6.772277227722772,7.353075198218596
6.792079207920792,7.3874892696275385
6.811881188118813,7.4173544398996
6.8316831683168315,7.442608630137433
6.851485148514851,7.463199800897646
6.871287128712871,7.479085857282563
6.891089108910891,7.490234574627326
6.910891089108911,7.496623544050835
6.930693069306931,7.498240137311464
6.9504950495049505,7.495081490587126
6.97029702970297,7.487154506979577
6.99009900990099,7.474475877724612
7.00990099009901,7.457072122271932
7.02970297029703,7.43497964757933
7.0495049504950495,7.408244827144717
7.069306930693069,7.37692410047453
7.089108910891089,7.341084093855314
7.108910891089109,7.300801763455737
7.128712871287128,7.256164561931989
7.148514851485149,7.207270629837835
7.1683168316831685,7.15422901324131
7.188118811881187,7.097159909015995
7.207920792079208,7.036194939291086
7.227722772277228,6.971477456495207
7.247524752475247,6.903162880294114
7.267326732673268,6.831419067473035
7.287128712871287,6.75642671541903
7.306930693069306,6.678379799274668
7.326732673267327,6.597486042010482
7.346534653465347,6.513967415539028
7.366336633663366,6.428060669493185
7.3861386138613865,6.340017882330721
7.405940594059406,6.250107026906188
7.425742574257425,6.1586125394610844
7.445544554455446,6.065835877008358
7.465346534653466,5.9720960432099055
7.485148514851485,5.877730056963835
7.504950495049505,5.783093330957444
7.524752475247524,5.688559919386132
7.544554455445544,5.594522584966046
7.564356435643565,5.501392625496908
7.584158415841584,5.409599389981303
7.603960396039604,5.319589404361511
7.623762376237624,5.231825018313717
7.643564356435643,5.146782478645639
7.663366336633663,5.064949333488652
7.683168316831684,4.986821076829605
7.702970297029703,4.91289695737899
7.7227722772277225,4.84367490164304
7.742574257425743,4.779645540180701
7.762376237623762,4.721285379113433
7.782178217821782,4.6690492249895295
7.801980198019803,4.6233620466635195
7.821782178217822,4.58461053674396
7.841584158415841,4.553134708523344
7.861386138613862,4.529219921390058
7.881188118811881,4.513089757467348
7.900990099009901,4.504900165400391
7.92079207920792,4.504735238760102
7.9405940594059405,4.512604907424966
7.96039603960396,4.528444698289005
7.980198019801979,4.552117580441599
8.0,4.583417766938144
8.01980198019802,4.622076218140495
8.03960396039604,4.667767495015036
8.05940594059406,4.720117553780653
8.07920792079208,4.778712058205041
8.099009900990099,4.843104808686137
8.118811881188119,4.912825939463124
8.138613861386139,4.987389606018731
8.158415841584159,5.06630096303358
8.178217821782178,5.1490623098294375
8.198019801980198,5.235178348354784
8.217821782178218,5.32416055447489
8.237623762376238,5.415530705168291
8.257425742574258,5.508823632629821
8.277227722772277,5.603589292881417
8.297029702970297,5.699394243544491
8.316831683168317,5.795822625322399
8.336633663366337,5.892476736696308
8.356435643564357,5.988977283234927
8.376237623762377,6.084963373235557
8.396039603960396,6.180092321241956
8.415841584158416,6.27403931106545
8.435643564356436,6.366496960738533
8.455445544554456,6.457174823606743
8.475247524752476,6.545798852620333
8.495049504950495,6.632110848820532
8.514851485148515,6.715867909964411
8.534653465346535,6.796841891099921
8.554455445544555,6.874818885573486
8.574257425742575,6.949598732312466
8.594059405940595,7.020994553162492
8.613861386138613,7.08883232247549
8.633663366336634,7.152950469949738
8.653465346534654,7.213199516842601
8.673267326732672,7.269441745047056
8.693069306930694,7.321550898090362
8.712871287128714,7.369411912835404
8.732673267326732,7.412920680506701
8.752475247524753,7.451983835596156
8.772277227722773,7.486518571206271
8.792079207920791,7.516452479442913
8.811881188118813,7.541723415563445
8.831683168316832,7.562279384707173
8.85148514851485,7.578078450177289
8.871287128712872,7.58908866239982
8.891089108910892,7.595288007851685
8.91089108910891,7.596664377423083
8.930693069306932,7.59321555385734
8.950495049504951,7.584949218091694
8.97029702970297,7.571882974504083
8.990099009900991,7.554044395252474
9.00990099009901,7.531471084073949
9.029702970297029,7.504210760088499
9.04950495049505,7.472321362325682
9.06930693069307,7.43587117585941
9.089108910891088,7.394938980592002
9.10891089108911,7.349614223871691
9.12871287128713,7.299997218248231
9.148514851485148,7.246199365765923
9.16831683168317,7.188343410247045
9.188118811881187,7.1265637190217275
9.207920792079207,7.061006595493457
9.227722772277229,6.991830623770672
9.247524752475247,6.919207046317237
9.267326732673267,6.843320175142577
9.287128712871288,6.764367836422886
9.306930693069306,6.6825618475657995
9.326732673267326,6.598128524538833
9.346534653465348,6.511309215701271
9.366336633663366,6.422360856322795
9.386138613861386,6.33155653534011
9.405940594059407,6.239186062586461
9.425742574257425,6.145556520611997
9.445544554455445,6.050992780184202
9.465346534653467,5.955837952518907
9.485148514851485,5.860453744180663
9.504950495049505,5.765220672406825
9.524752475247526,5.670538089452139
9.544554455445544,5.576823954668586
9.564356435643564,5.484514282885808
9.584158415841586,5.394062187971027
9.603960396039604,5.305936432290689
9.623762376237623,5.220619387622986
9.643564356435645,5.13860431272729
9.663366336633663,5.060391859449343
9.683168316831683,4.986485735286537
9.702970297029704,4.917387477991504
9.722772277227723,4.8535903387110135
9.742574257425742,4.795572324827952
9.762376237623764,4.743788520754757
9.782178217821782,4.698662880654555
9.801980198019802,4.66057976494101
9.821782178217823,4.629875563384865
9.841584158415841,4.606830801023305
9.861386138613861,4.591663148071237
9.881188118811881,4.584521743030716
9.900990099009901,4.58548318491066
9.92079207920792,4.594549457706011
9.94059405940594,4.611647926462934
9.96039603960396,4.636633403431355
9.98019801980198,4.6692921422516065
10.0,4.709347495053309
10.01980198019802,4.756466875651239
10.03960396039604,4.810269619906502
10.05940594059406,4.870335323362208
10.07920792079208,4.936212262023819
10.099009900990099,5.00742555590961
10.118811881188119,5.083484805991814
10.138613861386139,5.16389101274
10.158415841584159,5.248142659720841
10.178217821782178,5.335740912212781
10.198019801980198,5.426193934890694
10.217821782178218,5.5190203730500516
10.237623762376238,5.613752069094959
10.257425742574258,5.709936101782658
10.277227722772277,5.80713624222342
10.297029702970297,5.904933920222021
10.316831683168317,6.002928789377543
10.336633663366337,6.100738971255906
10.356435643564357,6.198001049349232
10.376237623762377,6.294369873487882
10.396039603960396,6.389518225594138
10.415841584158416,6.483136388609699
10.435643564356436,6.57493165233589
10.455445544554454,6.664627782894252
10.475247524752476,6.751964476543771
10.495049504950495,6.836696813617818
10.514851485148514,6.918594724271669
10.534653465346535,6.9974424744497234
10.554455445544555,7.073038177876514
10.574257425742573,7.145193337838606
10.594059405940595,7.213732420958525
10.613861386138614,7.278492463979653
10.633663366336632,7.339322713708396
10.653465346534654,7.396084299635242
10.673267326732674,7.448649938325598
10.693069306930692,7.49690366839527
10.712871287128714,7.540740614726331
10.732673267326733,7.580066780511431
10.752475247524751,7.614798865716809
10.772277227722773,7.644864110607085
10.792079207920793,7.670200163067408
10.81188118811881,7.690754968579025
10.831683168316832,7.7064866818455044
10.851485148514852,7.717363599222197
10.87128712871287,7.723364111267753
10.891089108910892,7.724476674909368
10.910891089108912,7.720699804890337
