Time (s),Filtered Signal
0.0,0.07599748037209612
0.03337004405286344,-0.14540220537997361
0.06674008810572687,-0.3605796619683127
0.10011013215859031,-0.5599079237927205
0.13348017621145375,-0.7326470341308114
0.16685022026431717,-0.8696429807885804
0.20022026431718062,-0.9664154564073997
0.23359030837004408,-1.0239726481242422
0.2669603524229075,-1.045902259248376
0.3003303964757709,-1.0329463384188837
0.33370044052863435,-0.9786246809927511
0.3670704845814978,-0.8697515020658609
0.40044052863436125,-0.6933236789364807
0.43381057268722467,-0.4473885508123112
0.46718061674008815,-0.15037758663193673
0.5005506607929515,0.1569570862443799
0.533920704845815,0.4198896652451573
0.5672907488986785,0.5862589568529538
0.6006607929515418,0.624676284964156
0.6340308370044053,0.5364243314669264
0.6674008810572687,0.3555395964537692
0.7007709251101322,0.13686177231847316
0.7341409691629956,-0.06271718535810938
0.767511013215859,-0.2017579998664401
0.8008810572687225,-0.26367413360521713
0.834251101321586,-0.2555226969546428
0.8676211453744493,-0.19872141461615178
0.9009911894273128,-0.11733784793967558
0.9343612334801763,-0.029498851669036635
0.9677312775330397,0.05528316012784446
1.001101321585903,0.13367242665710305
1.0344713656387665,0.2042786799540544
1.06784140969163,0.2652334125926577
1.1012114537444935,0.31529600045384926
1.134581497797357,0.3573352695032682
1.1679515418502202,0.4008617453249684
1.2013215859030837,0.4602242044599198
1.2346916299559472,0.5474179983514665
1.2680616740088106,0.6620518302146637
1.3014317180616741,0.7838310125687452
1.3348017621145374,0.8730509644238177
1.3681718061674009,0.8814465963899365
1.4015418502202643,0.7705301541375661
1.4349118942731278,0.5299280998384578
1.4682819383259913,0.18696916178599407
1.5016519823788548,-0.1979193662525126
1.535022026431718,-0.548969203019206
1.5683920704845815,-0.7987168390444483
1.601762114537445,-0.9077557975219042
1.6351321585903085,-0.8732861449397307
1.668502202643172,-0.7248945422919024
1.7018722466960352,-0.5115415530246605
1.7352422907488987,-0.28623218699968234
1.7686123348017622,-0.09377326774548482
1.8019823788546256,0.03599207979509283
1.8353524229074891,0.08983666609470217
1.8687224669603526,0.06932538356470255
1.9020925110132159,-0.012896012734324043
1.9354625550660793,-0.13760700396021647
1.9688325991189428,-0.28347128701421354
2.002202643171806,-0.43054189079895405
2.0355726872246698,-0.5619531263671146
2.068942731277533,-0.6635541577855862
2.1023127753303967,-0.7223972367185406
2.13568281938326,-0.7260038497243222
2.1690528634361232,-0.6642199234144006
2.202422907488987,-0.5338174316096733
2.23579295154185,-0.3435793213655292
2.269162995594714,-0.11613438030148504
2.302533039647577,0.1162382309641793
2.3359030837004404,0.3213057016660943
2.369273127753304,0.4778023099818455
2.4026431718061674,0.5817459174808669
2.436013215859031,0.6444232351812094
2.4693832599118943,0.6830774295966807
2.5027533039647576,0.7097563340875441
2.5361233480176213,0.7248818468646141
2.5694933920704845,0.7190616057707462
2.6028634361233483,0.6814722854067313
2.6362334801762115,0.609188087941087
2.6696035242290748,0.5115308301278395
2.7029735682819385,0.4068148163995211
2.7363436123348017,0.3135011022522127
2.7697136563876654,0.2409680631709031
2.8030837004405287,0.18518907476536836
2.8364537444933924,0.13178084535561443
2.8698237885462556,0.0648249831025101
2.903193832599119,-0.02326983441164059
2.9365638766519826,-0.12621208336891113
2.969933920704846,-0.22570040060487545
3.0033039647577096,-0.29990813047630216
3.036674008810573,-0.3341823244073971
3.070044052863436,-0.32832188708613946
3.1034140969162998,-0.2966554767479286
3.136784140969163,-0.26107691817706974
3.1701541850220267,-0.24095840866857635
3.20352422907489,-0.24530271542638574
3.2368942731277532,-0.27089146049503604
3.270264317180617,-0.3066293804653099
3.30363436123348,-0.34092180359357505
3.337004405286344,-0.3676168847747086
3.370374449339207,-0.38733844119632116
3.4037444933920704,-0.4039899486813836
3.437114537444934,-0.4190612136054856
3.4704845814977974,-0.42753387931313624
3.503854625550661,-0.41808474146555147
3.5372246696035243,-0.37763774498291885
3.5705947136563876,-0.2977087891298512
3.6039647577092513,-0.17897181305398027
3.6373348017621145,-0.0316198620404768
3.6707048458149782,0.12835707502840002
3.7040748898678415,0.2844995116868836
3.737444933920705,0.42360181434693006
3.7708149779735685,0.5359353927666293
3.8041850220264317,0.6126261714501593
3.8375550660792954,0.6430561594112315
3.8709251101321587,0.6155519281149309
3.9042951541850224,0.5226589672789898
3.9376651982378856,0.36890125062967516
3.971035242290749,0.17619294690718004
4.004405286343612,-0.017902043737185507
4.037775330396476,-0.17051727897321534
4.0711453744493395,-0.24889547534491893
4.104515418502203,-0.24370312230906974
4.137885462555066,-0.1732460732641422
4.171255506607929,-0.075686133741262
4.2046255506607935,0.00776431612223539
4.237995594713657,0.051155404972916485
4.27136563876652,0.05517910038871439
4.304735682819383,0.046202950865647435
4.3381057268722465,0.06301921902941794
4.371475770925111,0.13681398873325723
4.404845814977974,0.272981755773045
4.438215859030837,0.442970510255726
4.4715859030837,0.5905249811202135
4.504955947136564,0.6509524879021996
4.538325991189428,0.5765381794367929
4.571696035242291,0.3581457269957239
4.605066079295154,0.03376980846909872
4.638436123348018,-0.3205822187134256
4.671806167400881,-0.6153724442133521
4.705176211453745,-0.778620245044447
4.738546255506608,-0.7817365213050268
4.7719162995594715,-0.6499855091672925
4.805286343612335,-0.4533242469793001
4.838656387665198,-0.2808372003886452
4.872026431718062,-0.20801644185021217
4.905396475770925,-0.268575685906097
4.938766519823789,-0.44076690544671215
4.972136563876652,-0.6532223743262543
5.005506607929515,-0.8089351991599113
5.038876651982379,-0.8199708097642595
5.072246696035243,-0.6414176599936765
5.105616740088106,-0.29218046828795335
5.138986784140969,0.14659867857510597
5.172356828193832,0.5574233627727397
5.2057268722466965,0.8289563091416907
5.23909691629956,0.8993272370948812
5.272466960352423,0.7820156722675736
5.305837004405286,0.5618110607706776
5.3392070484581495,0.36055856677322834
5.372577092511014,0.2858335463825487
5.405947136563877,0.3840037712834254
5.43931718061674,0.6181337387961109
5.4726872246696034,0.8809393362741808
5.506057268722468,1.037928358212861
5.539427312775331,0.9827348076571161
5.572797356828194,0.6814623946750193
5.606167400881057,0.187914987033738
5.639537444933921,-0.3756035088710539
5.672907488986785,-0.862748839735128
5.706277533039648,-1.1540311458709596
5.739647577092511,-1.1943247532983723
5.7730176211453745,-1.0044188909648568
5.806387665198238,-0.6655304950377822
5.839757709251102,-0.286104690899421
5.873127753303965,0.03462469687502364
5.9064977973568284,0.23327304958669898
5.939867841409692,0.2923611887322727
5.973237885462555,0.23449318861113375
6.006607929515419,0.10659341741672113
6.039977973568282,-0.038468398983408744
6.073348017621146,-0.15722558178256343
6.106718061674009,-0.22498535297423547
6.140088105726872,-0.2382898577826578
6.173458149779736,-0.21071791588914246
6.2068281938325995,-0.16353021167392137
6.240198237885463,-0.11449583550948397
6.273568281938326,-0.06975417399272502
6.306938325991189,-0.023004686662879206
6.3403083700440535,0.03715875468599033
6.373678414096917,0.11591339255533477
6.40704845814978,0.2042782981879382
6.440418502202643,0.2808173768368934
6.4737885462555065,0.32353343768535775
6.507158590308371,0.3254863929823045
6.540528634361234,0.3038308245909139
6.573898678414097,0.29434341944846476
6.60726872246696,0.3314506961722372
6.640638766519824,0.42303004169486874
6.674008810572688,0.5343389113540612
6.707378854625551,0.5927689838935036
6.740748898678414,0.5153273437698908
6.774118942731278,0.24854220670927746
6.807488986784141,-0.19762542370733327
6.840859030837005,-0.7395357130832165
6.874229074889868,-1.2410617161702788
6.9075991189427315,-1.5595332876296295
6.940969162995595,-1.597872528167651
6.974339207048458,-1.3409709082080665
7.007709251101322,-0.8610762640303815
7.041079295154185,-0.29045523729138895
7.074449339207049,0.22655832330356596
7.107819383259912,0.5821390559423834
7.141189427312775,0.7354548633522665
7.174559471365639,0.71546381197972
7.207929515418503,0.5985323143234865
7.241299559471366,0.4728263473791603
7.274669603524229,0.4046268930510918
7.308039647577092,0.41849553121367766
7.3414096916299565,0.49611547834393005
7.37477973568282,0.5911340263286623
7.408149779735683,0.6521591766592953
7.441519823788546,0.6444108933154882
7.47488986784141,0.5622026850513393
7.508259911894274,0.42842353129952054
7.541629955947137,0.2821496865756287
7.575,0.15994377092303624
7.608370044052863,0.07882747874755408
7.641740088105728,0.028322266247786877
7.675110132158591,-0.024672088985045262
7.708480176211454,-0.11977497259078208
7.741850220264317,-0.2823745664454418
7.775220264317181,-0.5071958482830066
7.808590308370045,-0.7538465761215091
7.841960352422908,-0.9574050199807376
7.875330396475771,-1.0509741014367346
7.9087004405286345,-0.9918374091630947
7.942070484581498,-0.7806160228185243
7.975440528634362,-0.4648742450796531
8.008810572687224,-0.12458728040621143
8.042180616740088,0.15544117867630122
8.075550660792953,0.315167821234358
8.108920704845815,0.3386943916409593
8.142290748898679,0.25573894770732986
8.175660792951541,0.12556085352051058
8.209030837004406,0.011321167087784075
8.24240088105727,-0.0436881271521872
8.275770925110132,-0.02856081185446984
8.309140969162996,0.03734947849671034
8.342511013215859,0.11794464805572226
8.375881057268723,0.17787085018447188
8.409251101321587,0.19629692089269363
8.44262114537445,0.17228051734123137
8.475991189427313,0.12130240460878539
8.509361233480176,0.06609088536453737
8.54273127753304,0.026436331802934566
8.576101321585904,0.012169473522198914
8.609471365638766,0.02150812921911303
8.64284140969163,0.04454639243342859
8.676211453744493,0.06967122840793072
8.709581497797357,0.08975655124017633
8.742951541850221,0.10534004133051661
8.776321585903084,0.12345600816894436
8.809691629955948,0.1528038391287459
8.84306167400881,0.19764608828638391
8.876431718061674,0.2534763867883592
8.909801762114538,0.3067302695494226
8.9431718061674,0.33894869886204043
8.976541850220265,0.33371635996632293
9.009911894273127,0.2833830117115386
9.043281938325991,0.19264956243226306
9.076651982378856,0.07748814616364559
9.110022026431718,-0.040126648128562134
9.143392070484582,-0.13950502076837745
9.176762114537445,-0.20769770353903882
9.210132158590309,-0.2427669632889691
9.243502202643173,-0.2528498556092159
9.276872246696035,-0.2515737586498975
9.3102422907489,-0.2516664757266872
9.343612334801762,-0.2591925828512049
9.376982378854626,-0.27058100794161527
9.41035242290749,-0.27361189015515575
9.443722466960352,-0.2521903845885655
9.477092511013216,-0.19350761392261695
9.510462555066079,-0.09536560928038798
9.543832599118943,0.028900802344601934
9.577202643171807,0.15029079007597854
9.61057268722467,0.23027144329075544
9.643942731277534,0.23279355958640255
9.677312775330396,0.13916676033514813
9.71068281938326,-0.039678512585129166
9.744052863436124,-0.25975065545252907
9.777422907488987,-0.45339751927742555
9.81079295154185,-0.5505893105702226
9.844162995594713,-0.5052435080118665
9.877533039647577,-0.31591869975154185
9.910903083700441,-0.03092307072268986
9.944273127753304,0.2663413829065203
9.977643171806168,0.4873098229370798
10.01101321585903,0.5714885392487069
10.044383259911895,0.5087011274790959
10.077753303964759,0.3405118927398567
10.111123348017621,0.14033031600746396
10.144493392070485,-0.01860848278309909
10.177863436123348,-0.09290018536096034
10.211233480176212,-0.08335670823369405
10.244603524229076,-0.028707867397050172
10.277973568281938,0.017102693819593638
10.311343612334802,0.012442497604021515
10.344713656387665,-0.05286180617293015
10.378083700440529,-0.1552828901113822
10.411453744493393,-0.2521971663829873
10.444823788546255,-0.30496878830135354
10.47819383259912,-0.2981812840708211
10.511563876651982,-0.24500548341313522
10.544933920704846,-0.17616601721455952
10.57830396475771,-0.1188722276737384
10.611674008810573,-0.07782315124267011
10.645044052863437,-0.029760285468806276
10.678414096916299,0.06404060168246536
10.711784140969163,0.23301424760015974
10.745154185022027,0.4735503632793129
10.77852422907489,0.7400775214904248
10.811894273127754,0.9575881172450822
10.845264317180618,1.05089933076777
10.87863436123348,0.9768743782151242
10.912004405286345,0.7440909929734075
10.945374449339207,0.41083519910088284
10.978744493392071,0.062977068617036
11.012114537444935,-0.21766850727139117
11.045484581497798,-0.38086687298299043
11.078854625550662,-0.4213003898126096
11.112224669603524,-0.37481679320237343
11.145594713656388,-0.3013656079802359
11.178964757709252,-0.26191093888925765
11.212334801762115,-0.296820145895114
11.245704845814979,-0.411657267350003
11.279074889867841,-0.5743339128469228
11.312444933920705,-0.72529058909682
11.34581497797357,-0.7990436659270141
11.379185022026432,-0.7509277603501059
11.412555066079296,-0.5788615259190217
11.445925110132158,-0.3294167446842412
11.479295154185023,-0.08248786149514353
11.512665198237887,0.08151416055855669
11.546035242290749,0.1182234241778672
11.579405286343613,0.041709746576586444
11.612775330396476,-0.08032839834320187
11.64614537444934,-0.15891966929422466
11.679515418502204,-0.12962197805891182
11.712885462555066,0.01087535058919719
11.74625550660793,0.19739971513974158
11.779625550660793,0.3248043424306419
11.812995594713657,0.3007936158051171
11.846365638766521,0.09781960028058696
11.879735682819383,-0.22285393001555745
11.913105726872248,-0.5296009653965618
11.94647577092511,-0.6753472898982659
11.979845814977974,-0.5639911137268274
12.013215859030838,-0.19637931711032683
12.0465859030837,0.32691393095628524
12.079955947136565,0.8476930034421192
12.113325991189427,1.2167714713060427
12.146696035242291,1.3532382832034202
12.180066079295155,1.2692134936833417
12.213436123348018,1.0510353268965829
12.246806167400882,0.8095526375345142
12.280176211453744,0.6264118621468708
12.313546255506608,0.5230382398282587
12.346916299559473,0.46517610526676983
12.380286343612335,0.39620617596803265
12.413656387665199,0.27765367858788476
12.447026431718061,0.11306857854294251
12.480396475770926,-0.057506446247656044
12.51376651982379,-0.18750603776727956
12.547136563876652,-0.2588468453057531
12.580506607929516,-0.2995047726678831
12.613876651982379,-0.3712127050048093
12.647246696035243,-0.5323692652367021
12.680616740088107,-0.7965317561801861
12.71398678414097,-1.1111387430851625
12.747356828193833,-1.3714954672170918
12.780726872246696,-1.4663136104444443
12.81409691629956,-1.3332410565187618
12.847466960352424,-0.9957734921248602
12.880837004405286,-0.5610327959052404
12.91420704845815,-0.1772519867197122
12.947577092511013,0.02971056750570778
12.980947136563877,0.010746170958736357
13.014317180616741,-0.18677186183595637
13.047687224669604,-0.44220979444702757
13.081057268722468,-0.6154377492997727
13.11442731277533,-0.6050552018330182
13.147797356828194,-0.38477032051836085
13.181167400881058,-0.00409478814765238
13.21453744493392,0.4423554087256739
13.247907488986785,0.8582918206178247
13.281277533039647,1.179601872848368
13.314647577092511,1.3844219105896447
13.348017621145376,1.4799411943070158
13.381387665198238,1.4791839519175274
13.414757709251102,1.3847457786517772
13.448127753303964,1.1896313648708479
13.481497797356829,0.8927701905332115
13.514867841409693,0.5166616759429077
13.548237885462555,0.11329729903392413
13.58160792951542,-0.24752902393182705
13.614977973568282,-0.50186862840159
13.648348017621146,-0.6142456009177638
13.68171806167401,-0.5876369862003504
13.715088105726872,-0.45747250087911695
13.748458149779736,-0.2753750301174067
13.781828193832599,-0.09229578543443401
13.815198237885463,0.05203623667337708
13.848568281938327,0.13254955374691807
13.88193832599119,0.138773213494488
13.915308370044054,0.07475022481570642
13.948678414096916,-0.04114215091616661
13.98204845814978,-0.17950694183963287
14.015418502202644,-0.30866005287526155
14.048788546255507,-0.40677578978077045
14.08215859030837,-0.47110022842535104
14.115528634361233,-0.5175021445115513
14.148898678414097,-0.5685116500772098
14.182268722466961,-0.6354803835494085
14.215638766519824,-0.705570400375869
14.249008810572688,-0.7429821533353952
14.28237885462555,-0.7061218075007589
14.315748898678414,-0.5725271558895694
14.349118942731279,-0.3573992049132936
14.382488986784141,-0.11365534659935433
14.415859030837005,0.08903915401995235
14.449229074889868,0.1969845729646072
14.482599118942732,0.20034782043765886
14.515969162995596,0.14128653920853024
14.549339207048458,0.09704745454926728
14.582709251101322,0.14535112572279194
14.616079295154185,0.32815497141459854
14.649449339207049,0.6305692585060054
14.682819383259913,0.9843146386600359
14.716189427312775,1.2936172140265054
14.74955947136564,1.4714474741760406
14.782929515418502,1.4699887970881897
14.816299559471366,1.2926142410552848
14.84966960352423,0.9836091059803101
14.883039647577093,0.6023124299848664
14.916409691629957,0.19558946402709756
14.94977973568282,-0.2168975130615948
14.983149779735683,-0.63698382913088
15.016519823788547,-1.0655313461788312
15.04988986784141,-1.47691983988114
15.083259911894274,-1.8072472266896191
15.116629955947138,-1.9665628972516793
15.15,-1.8725279908510626
15.183370044052865,-1.4904539525445861
15.216740088105727,-0.8597962094442738
15.250110132158591,-0.09281583968377262
15.283480176211455,0.6557013848528138
15.316850220264318,1.2351836803632126
15.350220264317182,1.5430616683324945
15.383590308370044,1.5489970323430895
15.416960352422908,1.2930797890057752
15.450330396475772,0.863103599830858
15.483700440528635,0.3633285289115442
15.517070484581499,-0.11242924659003165
15.550440528634361,-0.49575182683877933
15.583810572687225,-0.7462011872477557
15.61718061674009,-0.8465057922987783
15.650550660792952,-0.796734259126745
15.683920704845816,-0.6114793517828552
15.717290748898678,-0.32009832483312384
15.750660792951543,0.032914420409042536
15.784030837004407,0.3907803713540903
15.817400881057269,0.6920483563728985
15.850770925110133,0.8819094245930684
15.884140969162996,0.9242656746900604
15.91751101321586,0.810989877136448
15.950881057268724,0.5653284107685188
15.984251101321586,0.23775634902874135
16.01762114537445,-0.10537890309911316
16.050991189427315,-0.39774194447344857
16.084361233480177,-0.5889066703937386
16.11773127753304,-0.6554514541656331
16.151101321585905,-0.6040841673027095
16.184471365638768,-0.46654754536387744
16.21784140969163,-0.28883308956577125
16.251211453744492,-0.11863721574245922
16.284581497797358,0.005323148914251738
16.31795154185022,0.06001146242366062
16.351321585903083,0.040394208500371044
16.38469162995595,-0.041820679265331194
16.41806167400881,-0.16187802548676294
16.451431718061674,-0.2872017354700474
16.48480176211454,-0.38359757968469677
16.518171806167402,-0.42187254598256585
16.551541850220264,-0.3839022452420758
16.584911894273127,-0.2667525724219273
16.618281938325993,-0.08356608315211042
16.651651982378855,0.13920253356914467
16.685022026431717,0.3673361532219581
16.718392070484583,0.5654259039937375
16.751762114537446,0.7027981103847177
16.785132158590308,0.7580974640319701
16.818502202643174,0.7227790350339883
16.851872246696036,0.6037691994935976
16.8852422907489,0.4244951553966075
16.91861233480176,0.22233439493400506
16.951982378854627,0.04073733772148075
16.98535242290749,-0.08347197029626258
17.01872246696035,-0.13368586081088926
17.052092511013218,-0.12163799358035492
17.08546255506608,-0.08442370581867926
17.118832599118942,-0.0691946335629101
17.152202643171808,-0.11071644182987858
17.18557268722467,-0.21204814803533692
17.218942731277533,-0.33907437430260856
17.2523127753304,-0.4342126013054451
17.28568281938326,-0.4451375261975674
17.319052863436124,-0.35535172822425815
