Frequency (Hz),Amplitude
0.0,5.455953108310115
0.019801980198019802,5.455149084324911
0.039603960396039604,5.45273947183714
0.0594059405940594,5.448731647629346
0.07920792079207921,5.443137900894083
0.09900990099009901,5.435975424919096
0.1188118811881188,5.4272663051507415
0.13861386138613863,5.417037503336029
0.15841584158415842,5.405320837353126
0.1782178217821782,5.3921529562458455
0.19801980198019803,5.377575309879417
0.21782178217821782,5.361634112531331
0.2376237623762376,5.344380299623726
0.25742574257425743,5.3258694766904435
0.27722772277227725,5.306161859555125
0.297029702970297,5.285322204574865
0.31683168316831684,5.2634197276806685
0.33663366336633666,5.240528010820192
0.3564356435643564,5.216724894284621
0.37623762376237624,5.192092353281073
0.39603960396039606,5.16671635699968
0.4158415841584158,5.1406867083242975
0.43564356435643564,5.114096862252843
0.45544554455445546,5.0870437210352355
0.4752475247524752,5.059627404009366
0.495049504950495,5.031950990128542
0.5148514851485149,5.0041202312346345
0.5346534653465347,4.9762432342515845
0.5544554455445545,4.948430110660983
0.5742574257425742,4.920792591887855
0.594059405940594,4.893443609577354
0.613861386138614,4.866496840190527
0.6336633663366337,4.840066213894854
0.6534653465346534,4.814265388375659
0.6732673267326733,4.789207188945715
0.6930693069306931,4.765003017176372
0.7128712871287128,4.741762231202739
0.7326732673267327,4.7195915018473835
0.7524752475247525,4.698594149739142
0.7722772277227723,4.678869469640763
0.7920792079207921,4.6605120492050895
0.8118811881188118,4.643611090308955
0.8316831683168316,4.628249741921217
0.8514851485148516,4.614504454096691
0.8712871287128713,4.602444363106136
0.891089108910891,4.592130717871036
0.9108910891089109,4.583616357738861
0.9306930693069307,4.576945251187294
0.9504950495049505,4.572152104277824
0.9702970297029703,4.569262046598903
0.99009900990099,4.568290401072246
1.00990099009901,4.569242542385766
1.0297029702970297,4.572113847018962
1.0495049504950495,4.576889735911346
1.0693069306930694,4.583545808866666
1.0891089108910892,4.5920480678647335
1.108910891089109,4.602353224644594
1.1287128712871286,4.6144090862970515
1.1485148514851484,4.628155011219705
1.1683168316831685,4.643522426685462
1.188118811881188,4.6604353984851725
1.2079207920792079,4.678811242635012
1.227722772277228,4.698561168983855
1.2475247524752475,4.71959094669484
1.2673267326732673,4.741801581975986
1.2871287128712872,4.76508999905558
1.3069306930693068,4.789349716194095
1.3267326732673268,4.8144715094463155
1.3465346534653466,4.84034405788822
1.3663366336633662,4.866854565059544
1.3861386138613863,4.89388935240466
1.405940594059406,4.921334421490812
1.4257425742574257,4.949075982715367
1.4455445544554455,4.977000949066242
1.4653465346534653,5.00499739425727
1.4851485148514851,5.032954975217387
1.504950495049505,5.060765319467424
1.5247524752475248,5.0883223783719265
1.5445544554455446,5.115522747613331
1.5643564356435644,5.142265956506678
1.5841584158415842,5.168454727966942
1.6039603960396038,5.193995211064818
1.6237623762376237,5.218797188172213
1.6435643564356437,5.242774258714815
1.6633663366336633,5.265844001524315
1.683168316831683,5.2879281177270565
1.7029702970297032,5.30895255602448
1.7227722772277227,5.328847622122211
1.7425742574257426,5.347548073952778
1.7623762376237624,5.364993204217689
1.782178217821782,5.38112691165081
1.801980198019802,5.395897762280117
1.8217821782178218,5.409259041840678
1.8415841584158414,5.421168800371034
1.8613861386138615,5.431589889906921
1.881188118811881,5.440489996074059
1.900990099009901,5.447841664272958
1.920792079207921,5.453622321045908
1.9405940594059405,5.457814291117138
1.9603960396039604,5.460404810503145
1.98019801980198,5.461386035998871
2.0,5.460755051257672
2.01980198019802,5.45851386959738
2.0396039603960396,5.454669433579885
2.0594059405940595,5.449233611327972
2.0792079207920793,5.4422231894587645
2.099009900990099,5.4336598624268
2.118811881188119,5.423570217982581
2.1386138613861387,5.411985718360986
2.1584158415841586,5.3989426767196695
2.1782178217821784,5.384482228248683
2.1980198019801978,5.368650295269091
2.217821782178218,5.351497545529715
2.237623762376238,5.3330793427979595
2.257425742574257,5.313455688721888
2.2772277227722775,5.292691154818938
2.297029702970297,5.270854803320776
2.3168316831683167,5.2480200954772895
2.336633663366337,5.224264785796212
2.3564356435643563,5.199670800572484
2.376237623762376,5.174324098946168
2.3960396039603964,5.14831451462388
2.4158415841584158,5.121735576312536
2.4356435643564356,5.094684304851289
2.455445544554456,5.067260984995786
2.4752475247524752,5.039568909816223
2.495049504950495,5.011714095726568
2.514851485148515,4.983804966276516
2.5346534653465347,4.9559520030195445
2.5544554455445545,4.928267362031221
2.5742574257425743,4.900864454999007
2.594059405940594,4.873857494248651
2.6138613861386135,4.847361001616068
2.633663366336634,4.821489281722555
2.6534653465346536,4.796355860962803
2.673267326732673,4.772072894364049
2.6930693069306932,4.748750543409104
2.712871287128713,4.726496328917345
2.7326732673267324,4.705414464121296
2.7524752475247527,4.685605174129791
2.7722772277227725,4.667164008993173
2.792079207920792,4.650181158537817
2.811881188118812,4.6347407779687
2.8316831683168315,4.620920333900251
2.8514851485148514,4.608789980920451
2.8712871287128716,4.5984119789779125
2.891089108910891,4.589840161771946
2.910891089108911,4.583119465898843
2.9306930693069306,4.5782855297547105
2.9504950495049505,4.575364370124081
2.9702970297029703,4.574372143019585
2.99009900990099,4.575314993722143
3.00990099009901,4.578188999161621
3.0297029702970297,4.582980203842579
3.0495049504950495,4.589664748536556
3.0693069306930694,4.5982090890107346
3.089108910891089,4.608570300220943
3.108910891089109,4.620696459736524
3.128712871287129,4.634527102743868
3.148514851485148,4.649993739841083
3.1683168316831685,4.667020428016052
3.1881188118811883,4.685524384704901
3.2079207920792077,4.705416634653492
3.227722772277228,4.726602679429256
3.2475247524752473,4.748983179823511
3.267326732673267,4.77245464200289
3.2871287128712874,4.796910099067037
3.3069306930693068,4.822239780598142
3.3267326732673266,4.848331763799195
3.346534653465347,4.875072600866281
3.366336633663366,4.902347918286467
3.386138613861386,4.93004298476341
3.4059405940594063,4.958043245420945
3.4257425742574257,4.986234820801164
3.4455445544554455,5.014504969944597
3.4653465346534653,5.042742517509515
3.485148514851485,5.070838245452366
3.504950495049505,5.098685250254486
3.5247524752475248,5.126179267047142
3.5445544554455446,5.153218962264423
3.564356435643564,5.179706196651075
3.5841584158415842,5.205546260580448
3.603960396039604,5.230648083704713
3.6237623762376234,5.254924420977213
3.6435643564356437,5.278292017062785
3.6633663366336635,5.300671751095665
3.683168316831683,5.321988763663124
3.702970297029703,5.342172567793252
3.722772277227723,5.36115714561267
3.7425742574257423,5.378881032219253
3.762376237623762,5.395287388189801
3.7821782178217824,5.410324062016525
3.801980198019802,5.423943643640639
3.8217821782178216,5.43610351012904
3.841584158415842,5.446765864421153
3.8613861386138613,5.455897767959073
3.881188118811881,5.4634711679048795
3.9009900990099013,5.469462919544644
3.9207920792079207,5.473854804379381
3.9405940594059405,5.4766335443075445
3.96039603960396,5.477790812212482
3.98019801980198,5.477323239179417
4.0,5.475232418480342
4.01980198019802,5.471524906380125
4.03960396039604,5.4662122197325225
4.0594059405940595,5.459310830249983
4.079207920792079,5.450842155244541
4.099009900990099,5.4408325445487895
4.118811881188119,5.42931326323411
4.138613861386139,5.41632046964813
4.158415841584159,5.401895188193485
4.178217821782178,5.386083276165206
4.198019801980198,5.368935383854283
4.217821782178218,5.3505069070094855
4.237623762376238,5.3308579306294055
4.257425742574258,5.310053162931845
4.2772277227722775,5.288161858219233
4.297029702970297,5.265257727228839
4.316831683168317,5.2414188334262874
4.336633663366336,5.21672747357409
4.356435643564357,5.191270040786492
4.376237623762377,5.165136868173094
4.3960396039603955,5.138422051081092
4.415841584158416,5.111223245877001
4.435643564356436,5.083641443169796
4.455445544554455,5.055780713378363
4.475247524752476,5.027747922594591
4.4950495049504955,4.999652416801072
4.514851485148514,4.971605672678336
4.534653465346535,4.94372091349176
4.554455445544555,4.916112688892503
4.574257425742574,4.888896417908162
4.594059405940594,4.862187894944511
4.613861386138614,4.836102759271873
4.633663366336633,4.810755929229666
4.653465346534653,4.7862610032430855
4.673267326732674,4.762729630696792
4.693069306930693,4.740270856733149
4.712871287128713,4.718990446111915
4.732673267326733,4.698990192351844
4.752475247524752,4.680367219433471
4.772277227722772,4.663213284330921
4.792079207920793,4.647614089510038
4.811881188118812,4.63364861522999
4.8316831683168315,4.6213884819658695
4.851485148514852,4.610897353486026
4.871287128712871,4.602230391033354
4.891089108910891,4.595433768649803
4.910891089108912,4.590544258937358
4.930693069306931,4.587588897473375
4.9504950495049505,4.586584732718528
4.97029702970297,4.5875386666125015
4.99009900990099,4.5904473892054565
5.00990099009901,4.595297408691345
5.02970297029703,4.602065176172979
5.0495049504950495,4.6107173024799195
5.069306930693069,4.621210862460595
5.089108910891089,4.63349378045285
5.108910891089109,4.647505289165493
5.128712871287129,4.66317645302364
5.148514851485149,4.680430746174815
5.1683168316831685,4.699184674830955
5.188118811881188,4.719348433430735
5.207920792079208,4.740826584225393
5.227722772277227,4.763518750286805
5.247524752475248,4.787320312566287
5.267326732673268,4.812123102448809
5.2871287128712865,4.837816082198288
5.306930693069307,4.864286006727099
5.326732673267327,4.891418061198845
5.346534653465346,4.919096470048241
5.366336633663367,4.947205074039102
5.3861386138613865,4.975627872955817
5.405940594059405,5.00424953241239
5.425742574257426,5.0329558540549035
5.445544554455446,5.0616342091193856
5.465346534653465,5.090173935886439
5.485148514851486,5.1184667020479795
5.504950495049505,5.1464068333764095
5.524752475247524,5.173891610370038
5.544554455445545,5.200821534749657
5.564356435643565,5.227100567810571
5.584158415841584,5.252636342702254
5.603960396039604,5.277340352724015
5.623762376237624,5.301128117699284
5.643564356435643,5.32391933043264
5.663366336633663,5.345637985168926
5.683168316831684,5.366212489871245
5.702970297029703,5.385575764018338
5.7227722772277225,5.403665323498216
5.742574257425743,5.420423354046341
5.762376237623762,5.435796774547608
5.782178217821782,5.449737291393167
5.801980198019803,5.46220144495788
5.821782178217822,5.473150649143346
5.841584158415841,5.482551224815036
5.861386138613861,5.490374427851137
5.881188118811881,5.496596472414674
5.900990099009901,5.501198549959579
5.920792079207921,5.5041668443847325
5.9405940594059405,5.5054925436573106
5.96039603960396,5.505171848137315
5.98019801980198,5.503205975747546
6.0,5.49960116404781
6.01980198019802,5.494368669186297
6.03960396039604,5.487524761615416
6.0594059405940595,5.479090718372116
6.079207920792079,5.469092811632924
6.099009900990099,5.4575622931610885
6.118811881188119,5.444535374166733
6.138613861386139,5.4300531999989525
6.158415841584159,5.414161818982484
6.178217821782178,5.396912144599026
6.198019801980198,5.378359910095334
6.217821782178218,5.35856561447669
6.237623762376237,5.337594458715481
6.257425742574258,5.3155162708722274
6.2772277227722775,5.292405418690908
6.297029702970296,5.26834070809469
6.316831683168317,5.243405265874798
6.336633663366337,5.217686404738027
6.356435643564356,5.191275468761092
6.376237623762377,5.164267657200001
6.396039603960396,5.136761824523894
6.415841584158415,5.108860254495834
6.435643564356436,5.0806684061140865
6.455445544554456,5.052294629268098
6.475247524752475,5.023849848062588
6.495049504950495,4.9954472099330784
6.514851485148515,4.9672016989267105
6.534653465346534,4.939229711864521
6.554455445544554,4.9116485965442385
6.574257425742575,4.884576151693687
6.594059405940594,4.85813008904807
6.6138613861386135,4.832427458699856
6.633663366336634,4.807584039753218
6.653465346534653,4.783713699294119
6.673267326732673,4.760927723745508
6.693069306930694,4.7393341277875045
6.712871287128713,4.719036947153152
6.732673267326732,4.7001355227202355
6.752475247524753,4.682723784361491
6.772277227722772,4.666889543939125
6.792079207920792,4.6527138075804135
6.811881188118813,4.640270117897341
6.8316831683168315,4.629623937067297
6.851485148514851,4.620832081633155
6.871287128712871,4.613942219483827
6.891089108910891,4.608992438726524
6.910891089108911,4.606010897067137
6.930693069306931,4.605015558897493
6.9504950495049505,4.606014025592878
6.97029702970297,4.609003462608702
6.99009900990099,4.61397062490607
7.00990099009901,4.620891980114783
7.02970297029703,4.629733926746594
7.0495049504950495,4.640453102786199
7.069306930693069,4.65299677819096
7.089108910891089,4.667303323288594
7.108910891089109,4.683302743826092
7.128712871287128,4.700917272523994
7.148514851485149,4.720062006442674
7.1683168316831685,4.740645579265038
7.188118811881187,4.762570857722818
7.207920792079208,4.78573565180598
7.227722772277228,4.810033429052161
7.247524752475247,4.835354024064882
7.267326732673268,4.861584335402041
7.287128712871287,4.888609003057796
7.306930693069306,4.916311060882445
7.326732673267327,4.944572559403112
7.346534653465347,4.973275155587255
7.366336633663366,5.0023006671014985
7.3861386138613865,5.031531589540378
7.405940594059406,5.060851575918117
7.425742574257425,5.090145878425368
7.445544554455446,5.119301753048923
7.465346534653466,5.148208828139597
7.485148514851485,5.176759438396383
7.504950495049505,5.204848926023699
7.524752475247524,5.232375911021361
7.544554455445544,5.259242532695766
7.564356435643565,5.285354664546159
7.584158415841584,5.310622104692123
7.603960396039604,5.334958743978009
7.623762376237624,5.358282713825658
7.643564356435643,5.380516515816511
7.663366336633663,5.401587134875443
7.683168316831684,5.421426137806804
7.702970297029703,5.439969758803641
7.7227722772277225,5.457158973417564
7.742574257425743,5.4729395623425505
7.762376237623762,5.487262166233444
7.782178217821782,5.500082332650757
7.801980198019803,5.511360556098783
7.821782178217822,5.521062312004712
7.841584158415841,5.529158085372557
7.861386138613862,5.53562339473749
7.881188118811881,5.54043881194295
7.900990099009901,5.543589978164724
7.92079207920792,5.54506761651159
7.9405940594059405,5.544867541441602
7.96039603960396,5.542990665143789
7.980198019801979,5.539443000948574
8.0,5.5342356637430825
8.01980198019802,5.527384867280658
8.03960396039604,5.518911918184876
8.05940594059406,5.508843206357564
8.07920792079208,5.497210191405385
8.099009900990099,5.484049384600794
8.118811881188119,5.469402325789259
8.138613861386139,5.453315554544861
8.158415841584159,5.43584057476087
8.178217821782178,5.41703381173957
8.198019801980198,5.396956560717476
8.217821782178218,5.375674925628043
8.237623762376238,5.353259746764797
8.257425742574258,5.3297865158655755
8.277227722772277,5.305335276994819
8.297029702970297,5.279990511458454
8.316831683168317,5.253841004848729
8.336633663366337,5.226979694189384
8.356435643564357,5.199503493039026
8.376237623762377,5.171513092321744
8.396039603960396,5.143112734594253
8.415841584158416,5.114409959439171
8.435643564356436,5.085515317703933
8.455445544554456,5.056542052395133
8.475247524752476,5.027605744200654
8.495049504950495,4.99882391985922
8.514851485148515,4.970315621938883
8.534653465346535,4.942200939034341
8.554455445544555,4.914600495955263
8.574257425742575,4.887634904158818
8.594059405940595,4.861424173481788
8.613861386138613,4.836087087145026
8.633663366336634,4.811740543026296
8.653465346534654,4.788498865307377
8.673267326732672,4.766473091772684
8.693069306930694,4.745770243234107
8.712871287128714,4.7264925827379045
8.732673267326732,4.708736873325722
8.752475247524753,4.692593644116815
8.772277227722773,4.6781464752970665
8.792079207920791,4.665471313183902
8.811881188118813,4.654635826834379
8.831683168316832,4.645698817631914
8.85148514851485,4.6387096928955245
8.871287128712872,4.633708013789117
8.891089108910892,4.630723126671991
8.91089108910891,4.62977388555065
8.930693069306932,4.6308684715105555
8.950495049504951,4.634004312988843
8.97029702970297,4.6391681085739656
8.990099009900991,4.646335951773736
9.00990099009901,4.655473554973944
9.029702970297029,4.666536567706081
9.04950495049505,4.679470982439853
9.06930693069307,4.69421361948425
9.089108910891088,4.710692681274823
9.10891089108911,4.728828365378511
9.12871287128713,4.74853352497482
9.148514851485148,4.769714365368261
9.16831683168317,4.792271165227486
9.188118811881187,4.8160990116944715
9.207920792079207,4.841088539213848
9.227722772277229,4.867126662843198
9.247524752475247,4.894097297863135
9.267326732673267,4.921882058654627
9.287128712871288,4.950360930999108
9.306930693069306,4.979412913137918
9.326732673267326,5.008916622063859
9.346534653465348,5.038750862579111
9.366336633663366,5.06879515761812
9.386138613861386,5.098930239187789
9.405940594059407,5.129038500013219
9.425742574257425,5.159004406593502
9.445544554455445,5.188714874872189
9.465346534653467,5.218059610118485
9.485148514851485,5.246931412906138
9.504950495049505,5.275226453279387
9.524752475247526,5.302844515320068
9.544554455445544,5.329689214389087
9.564356435643564,5.3556681893198865
9.584158415841586,5.380693271802493
9.603960396039604,5.404680635122873
9.623762376237623,5.427550924322641
9.643564356435645,5.449229369726269
9.663366336633663,5.469645885651978
9.683168316831683,5.488735155985024
9.702970297029704,5.506436708150512
9.722772277227723,5.522694976881955
9.742574257425742,5.537459359043139
9.762376237623764,5.550684260625764
9.782178217821782,5.562329136916344
9.801980198019802,5.5723585267019216
9.821782178217823,5.580742081266881
9.841584158415841,5.5874545888216405
9.861386138613861,5.592475994898147
9.881188118811881,5.595791419146504
9.900990099009901,5.597391168870761
9.92079207920792,5.597270749548809
9.94059405940594,5.5954308724913915
9.96039603960396,5.591877459706393
9.98019801980198,5.5866216459460425
10.0,5.579679777826328
10.01980198019802,5.571073409816948
10.03960396039604,5.5608292968070545
10.05940594059406,5.548979382854954
10.07920792079208,5.535560785628215
10.099009900990099,5.520615775933235
10.118811881188119,5.504191751619662
10.138613861386139,5.48634120502483
10.158415841584159,5.467121682995381
10.178217821782178,5.44659573838881
10.198019801980198,5.424830871815995
10.217821782178218,5.401899462238317
10.237623762376238,5.377878684880742
10.257425742574258,5.352850414767956
10.277227722772277,5.32690111403605
10.297029702970297,5.300121701022247
10.316831683168317,5.272607398993783
10.336633663366337,5.244457562250507
10.356435643564357,5.215775477230969
10.376237623762377,5.186668136177718
10.396039603960396,5.157245980882911
10.415841584158416,5.12762261405236
10.435643564356436,5.097914475905323
10.455445544554454,5.068240483782936
10.475247524752476,5.038721632781438
10.495049504950495,5.0094805557718445
10.514851485148514,4.98064104162537
10.534653465346535,4.9523275110445715
10.554455445544555,4.9246644501100745
10.574257425742573,4.897775802493192
10.594059405940595,4.871784322253775
10.613861386138614,4.846810890228073
10.633663366336632,4.822973798196117
10.653465346534654,4.800388006273795
10.673267326732674,4.7791643802653505
10.693069306930692,4.759408916991686
10.712871287128714,4.741221966825222
10.732673267326733,4.724697463753459
10.752475247524751,4.709922174198687
10.772277227722773,4.696974976476971
10.792079207920793,4.685926183129535
10.81188118811881,4.6768369183535405
10.831683168316832,4.669758562363786
10.851485148514852,4.664732273714054
10.87128712871287,4.661788599400868
10.891089108910892,4.660947180989789
