Frequency (Hz),Amplitude
0.0,6.802206511285222
0.020066889632107024,6.8033973995399615
0.04013377926421405,6.80696413834959
0.060200668896321065,6.812888999224111
0.0802675585284281,6.821142598349082
0.10033444816053512,6.831684138934684
0.12040133779264213,6.844461744310091
0.14046822742474915,6.859412875828509
0.1605351170568562,6.8764648283076415
0.1806020066889632,6.895535294628848
0.20066889632107024,6.916532990281773
0.22073578595317725,6.939358328082814
0.24080267558528426,6.9639041330152756
0.2608695652173913,6.990056387124987
0.2809364548494983,7.017694994635387
0.3010033444816054,7.046694557891643
0.3210702341137124,7.076925155368011
0.34113712374581934,7.108253113738638
0.3612040133779264,7.140541766879644
0.3812709030100334,7.173652195601507
0.4013377926421405,7.2074439428697055
0.42140468227424743,7.241775700227497
0.4414715719063545,7.276505962059676
0.4615384615384615,7.311493645210244
0.4816053511705685,7.34659867227201
0.5016722408026756,7.381682517592801
0.5217391304347826,7.416608715682646
0.5418060200668896,7.45124333225797
0.5618729096989966,7.485455398621643
0.5819397993311036,7.519117310455971
0.6020066889632107,7.552105192403986
0.6220735785953176,7.584299230039806
0.6421404682274248,7.6155839709882835
0.6622073578595318,7.645848597056384
0.6822742474916387,7.674987169290833
0.7023411371237458,7.702898847886687
0.7224080267558528,7.729488088846967
0.7424749163879598,7.754664819240509
0.7625418060200668,7.778344592830114
0.7826086956521738,7.800448727751013
0.802675585284281,7.820904427814994
0.8227424749163879,7.8396448889021215
0.8428093645484949,7.85660939178302
0.862876254180602,7.871743382592468
0.882943143812709,7.884998542051752
0.903010033444816,7.896332844413958
0.923076923076923,7.905710606984671
0.9431438127090299,7.9131025309503125
0.963210702341137,7.918485734128711
0.983277591973244,7.9218437761408484
1.0033444816053512,7.923166676389313
1.0234113712374582,7.922450925117429
1.0434782608695652,7.919699487712803
1.0635451505016722,7.914921802309554
1.0836120401337792,7.908133770634558
1.1036789297658862,7.89935774193362
1.1237458193979932,7.888622489703082
1.1438127090301002,7.875963180840923
1.1638795986622072,7.861421336717776
1.1839464882943145,7.845044785552602
1.2040133779264215,7.826887605359906
1.2240802675585283,7.807010056615126
1.2441471571906353,7.7854785036626595
1.2642140468227423,7.7623653237676935
1.2842809364548495,7.737748802589146
1.3043478260869565,7.71171301472866
1.3244147157190636,7.6843476878908215
1.3444816053511706,7.655748049076172
1.3645484949832773,7.626014651122869
1.3846153846153846,7.595253177820279
1.4046822742474916,7.56357422574156
1.4247491638795986,7.53109306088844
1.4448160535117056,7.497929348215568
1.4648829431438126,7.4642068521103715
1.4849498327759196,7.43005310595537
1.5050167224080266,7.39559904899982
1.5250836120401337,7.360978628925684
1.5451505016722407,7.3263283687158225
1.5652173913043477,7.291786896728987
1.5852842809364547,7.257494439261778
1.605351170568562,7.223592275338692
1.625418060200669,7.1902221540207485
1.6454849498327757,7.15752567516121
1.6655518394648827,7.125643635261499
1.6856187290969897,7.094715340884795
1.705685618729097,7.064877892957818
1.725752508361204,7.036265446216654
1.745819397993311,7.009008449009241
1.765886287625418,6.983232869628032
1.7859531772575248,6.959059416281046
1.806020066889632,6.936602758681278
1.826086956521739,6.915970760006515
1.846153846153846,6.897263728613374
1.866220735785953,6.880573699343486
1.8862876254180598,6.865983754499282
1.9063545150501673,6.853567394563604
1.926421404682274,6.84338796846766
1.9464882943143813,6.835498172664567
1.966555183946488,6.82993962744044
1.9866220735785953,6.826742537803313
2.0066889632107023,6.825925444958833
2.026755852842809,6.827495072846795
2.0468227424749164,6.831446272524032
2.0668896321070234,6.8377620653932905
2.0869565217391304,6.846413784456738
2.1070234113712374,6.857361310981823
2.1270903010033444,6.870553402267648
2.1471571906354514,6.88592810465142
2.1672240802675584,6.903413244543179
2.1872909698996654,6.922926989165088
2.2073578595317724,6.944378467822001
2.2274247491638794,6.967668443958883
2.2474916387959865,6.992690027966624
2.267558528428094,7.019329420671279
2.2876254180602005,7.047466677659989
2.3076923076923075,7.076976485031555
2.3277591973244145,7.10772893777558
2.3478260869565215,7.139590312741907
2.367892976588629,7.172423829024706
2.3879598662207355,7.206090389512131
2.408026755852843,7.240449298309465
2.4280936454849495,7.275358949698314
2.4481605351170566,7.310677485220561
2.468227424749164,7.346263416350604
2.4882943143812706,7.3819762110278955
2.508361204013378,7.417676843051006
2.5284280936454846,7.453228303978365
2.548494983277592,7.488496077735969
2.568561872909699,7.523348578599864
2.5886287625418056,7.557657553602988
2.608695652173913,7.591298450718784
2.6287625418060196,7.6241507544025895
2.648829431438127,7.65609829023543
2.668896321070234,7.687029500519701
2.688963210702341,7.716837692731335
2.709030100334448,7.745421262746016
2.7290969899665547,7.772683894734037
2.749163879598662,7.798534739567737
2.769230769230769,7.822888573511732
2.789297658862876,7.845665938875172
2.809364548494983,7.866793268201887
2.82943143812709,7.886202993461253
2.849498327759197,7.9038336415843
2.869565217391304,7.919629917567855
2.8896321070234112,7.933542776246143
2.9096989966555182,7.945529483706163
2.9297658862876252,7.955553669201421
2.9498327759197323,7.9635853682980615
2.9698996655518393,7.969601057869766
2.9899665551839463,7.97358368344153
3.0100334448160533,7.975522679268944
3.0301003344481603,7.975413981427417
3.0501672240802673,7.973260034075226
3.0702341137123748,7.96906978894421
3.0903010033444813,7.962858698002602
3.1103678929765888,7.954648699124489
3.1304347826086953,7.944468194489421
3.1505016722408024,7.932352021323788
3.1705685618729094,7.918341414481229
3.1906354515050164,7.9024839602434165
3.210702341137124,7.8848335406036965
3.2307692307692304,7.8654502671757225
3.250836120401338,7.844400403746184
3.270903010033445,7.821756276367131
3.2909698996655514,7.797596169758853
3.311036789297659,7.772004208671562
3.3311036789297654,7.745070222733883
3.351170568561873,7.716889593202017
3.3712374581939795,7.687563079917549
3.391304347826087,7.657196626688767
3.411371237458194,7.625901143233972
3.4314381270903005,7.5937922617711076
3.451505016722408,7.560990066311978
3.471571906354515,7.527618792727912
3.491638795986622,7.493806497704337
3.511705685618729,7.459684694802014
3.531772575250836,7.425387956000302
3.551839464882943,7.391053477321388
3.5719063545150496,7.3568206074304685
3.591973244147157,7.322830338483139
3.612040133779264,7.289224758952127
3.632107023411371,7.256146468714957
3.652173913043478,7.223737957322663
3.672240802675585,7.1921409470945195
3.692307692307692,7.161495703488623
3.712374581939799,7.131940316071962
3.732441471571906,7.103609954339994
3.752508361204013,7.076636103593687
3.7725752508361197,7.051145787045194
3.7926421404682276,7.0272607812598
3.8127090301003346,7.00509683291722
3.832775919732441,6.98476288565109
3.852842809364548,6.966360326362014
3.872909698996655,6.949982260859117
3.8929765886287626,6.935712828931541
3.9130434782608696,6.923626568954765
3.933110367892976,6.913787841875155
3.953177257525083,6.906250323876994
3.9732441471571907,6.901056576218991
3.9933110367892977,6.898237699643884
4.013377926421405,6.897813079440077
4.033444816053511,6.899790225705621
4.053511705685618,6.904164711680499
4.073578595317726,6.910920211229359
4.093645484949833,6.920028634736234
4.113712374581939,6.931450360878735
4.133779264214047,6.9451345600453855
4.153846153846153,6.9610196036025895
4.173913043478261,6.979033551857755
4.193979933110368,6.999094712440524
4.214046822742475,7.021112259962114
4.234113712374581,7.044986907227287
4.254180602006689,7.0706116179655005
4.274247491638796,7.097872351006804
4.294314381270903,7.1266488260333185
4.314381270903009,7.156815301459741
4.334448160535117,7.188241355601393
4.354515050167224,7.2207926630381305
4.374581939799331,7.254331758937616
4.394648829431437,7.288718785024057
4.414715719063545,7.323812211832459
4.434782608695651,7.359469532842708
4.454849498327759,7.3955479270142455
4.474916387959866,7.431904887120235
4.494983277591973,7.468398812091281
4.5150501672240795,7.504889562313039
4.535117056856188,7.541238977470844
4.555183946488294,7.577311357095467
4.575250836120401,7.612973904436959
4.595317725752508,7.648097134681685
4.615384615384615,7.682555248835313
4.635451505016722,7.716226474829266
4.655518394648829,7.748993377575901
4.6755852842809364,7.780743139807631
4.695652173913043,7.811367815593995
4.71571906354515,7.840764558447203
4.735785953177258,7.868835825906804
4.7558528428093645,7.895489562445901
4.775919732441471,7.920639362469618
4.795986622073578,7.944204615087405
4.816053511705686,7.966110632238164
4.8361204013377925,7.986288761635569
4.856187290969899,8.00467648588281
4.8762541806020065,8.021217508984595
4.896321070234113,8.035861831361066
4.916387959866221,8.048565814344904
4.936454849498328,8.059292235020676
4.956521739130435,8.068010332144771
4.976588628762541,8.074695843765513
4.996655518394649,8.079331037046545
5.016722408026756,8.081904730681815
5.036789297658863,8.082412310177775
5.056856187290969,8.080855736166512
5.076923076923077,8.077243545803073
5.096989966555184,8.071590847189176
5.117056856187291,8.063919306654924
5.137123745819398,8.054257128618078
5.157190635451505,8.042639027627253
5.177257525083611,8.029106192080272
5.197324414715719,8.01370623899158
5.217391304347826,7.996493159063363
5.237458193979933,7.977527251192993
5.257525083612039,7.956875045426075
5.277591973244148,7.934609213239625
5.297658862876254,7.910808463914875
5.317725752508361,7.885557425635656
5.337792642140468,7.858946509827897
5.357859531772575,7.831071757141042
5.377926421404682,7.802034663366563
5.397993311036789,7.771941983495499
5.418060200668896,7.740905512041022
5.438127090301003,7.709041837698574
5.458193979933109,7.676472070390991
5.478260869565218,7.64332153875569
5.498327759197324,7.609719456183375
5.518394648829431,7.575798553619555
5.538461538461538,7.541694677500144
5.558528428093646,7.5075463514181955
5.578595317725752,7.473494300417595
5.598662207357859,7.439680937188455
5.618729096989966,7.406249809902885
5.638795986622073,7.3733450119823445
5.65886287625418,7.341110554728926
5.678929765886288,7.3096897044811096
5.698996655518394,7.2792242867619645
5.719063545150501,7.249853960764166
5.739130434782608,7.22171546844502
5.759197324414716,7.194941863464894
5.7792642140468224,7.169661726167319
5.799331103678929,7.145998371737789
5.8193979933110365,7.1240690595551515
5.839464882943144,7.103984212527087
5.8595317725752505,7.085846655839948
5.879598662207358,7.069750885014775
5.8996655518394645,7.0557823734106355
5.919732441471571,7.044016929322967
5.9397993311036785,7.0345201125666135
5.959866220735786,7.027346719898266
5.9799331103678925,7.022540347819752
5.999999999999999,7.020133040224902
6.020066889632107,7.020145027031626
6.040133779264214,7.022584558416103
6.060200668896321,7.027447837583665
6.080267558528428,7.03471905322854
6.100334448160535,7.044370511012855
6.120401337792642,7.056362861599067
6.1404682274247495,7.070645421060542
6.160535117056856,7.087156577931356
6.180602006688963,7.10582427978655
6.200668896321069,7.126566591108407
6.2207357859531776,7.149292313319901
6.240802675585284,7.173901657266648
6.260869565217391,7.200286958106799
6.280936454849498,7.228333422512863
6.301003344481605,7.257919898281
6.321070234113712,7.2889196568533965
6.341137123745819,7.321201179853462
6.361204013377926,7.354628941473995
6.381270903010033,7.389064179406941
6.40133779264214,7.4243656479208235
6.421404682274248,7.460390347643439
6.441471571906354,7.496994227560949
6.461538461538461,7.534032855672628
6.481605351170568,7.5713620556213685
6.501672240802676,7.608838507435903
6.521739130434782,7.646320311260483
6.54180602006689,7.683667513602917
6.561872909698996,7.720742596199627
6.581939799331103,7.757410928076478
6.60200668896321,7.7935411817792755
6.622073578595318,7.82900571506256
6.642140468227424,7.863680919566484
6.662207357859531,7.897447538185711
6.682274247491639,7.930190952949469
6.702341137123746,7.961801445296046
6.722408026755852,7.992174430645486
6.742474916387959,8.021210669158508
6.762541806020066,8.048816454524108
6.782608695652174,8.074903782549496
6.80267558528428,8.0993905012385
6.822742474916388,8.1222004439437
6.842809364548494,8.143263547066669
6.862876254180601,8.162515953663293
6.882943143812709,8.179900104189905
6.903010033444816,8.195364815502506
6.9230769230769225,8.208865349097767
6.94314381270903,8.220363469461581
6.963210702341137,8.229827493269156
6.983277591973244,8.237232330061257
7.0033444816053505,8.24255951490313
7.023411371237458,8.24579723341686
7.0434782608695645,8.24694033946365
7.063545150501672,8.24599036563934
7.083612040133779,8.242955526634102
7.103678929765886,8.237850715395144
7.123745819397993,8.230697491918596
7.143812709030099,8.221524064383285
7.1638795986622075,8.210365262224324
7.183946488294314,8.197262500627483
7.204013377926421,8.18226373580681
7.224080267558528,8.165423410306675
7.2441471571906355,8.146802387446417
7.264214046822742,8.126467873901024
7.2842809364548495,8.104493329285038
7.304347826086956,8.08095836148143
7.324414715719063,8.055948606332384
7.34448160535117,8.029555590188384
7.364548494983278,8.001876573696878
7.384615384615384,7.973014375106536
7.404682274247491,7.943077171270319
7.424749163879598,7.91217827445597
7.444816053511706,7.880435883020432
7.464882943143812,7.8479728039818095
7.48494983277592,7.814916145535079
7.505016722408026,7.781396977613149
7.525083612040134,7.747549958700828
7.545150501672239,7.713512927273946
7.565217391304348,7.679426456466273
7.585284280936455,7.645433370871804
7.605351170568561,7.611678224774432
7.625418060200669,7.578306741567441
7.645484949832775,7.5454652146840235
7.665551839464882,7.513299871007734
7.685618729096991,7.481956198465873
7.705685618729096,7.451578240322135
7.725752508361204,7.422307859566432
7.74581939799331,7.394283977732939
7.765886287625418,7.367641793441213
7.785953177257525,7.34251198692287
7.806020066889631,7.319019917736291
7.826086956521739,7.297284823749614
7.846153846153847,7.277419030249628
7.866220735785952,7.259527178671486
7.88628762541806,7.243705484904899
7.906354515050166,7.2300410373790776
7.926421404682274,7.218611145133842
7.946488294314381,7.2094827458242845
7.966555183946488,7.202711883069551
7.986622073578595,7.1983432617422025
8.006688963210701,7.196409888714504
8.02675585284281,7.196932805256679
8.046822742474916,7.199920915756554
8.066889632107022,7.205370915746736
8.08695652173913,7.213267320441746
8.107023411371236,7.223582593163349
8.127090301003344,7.236277371232147
8.147157190635452,7.2513007851892635
8.167224080267557,7.268590865640793
8.187290969899665,7.28807503063974
8.207357859531772,7.309670645373985
8.227424749163879,7.333285645042407
8.247491638795987,7.358819211189328
8.267558528428093,7.38616249143177
8.2876254180602,7.415199352445335
8.307692307692307,7.445807156253263
8.327759197324415,7.477857550261323
8.347826086956522,7.511217262064675
8.367892976588628,7.545748890784976
8.387959866220736,7.581311687537388
8.408026755852843,7.617762318540581
8.42809364548495,7.654955605332002
8.448160535117056,7.692745237504366
8.468227424749163,7.730984454309435
8.488294314381271,7.769526692359662
8.508361204013378,7.808226197480001
8.528428093645484,7.846938599507776
8.548494983277592,7.885521449501623
8.568561872909697,7.923834719395952
8.588628762541806,7.96174126462576
8.608695652173914,7.9991072506501
8.628762541806019,8.035802544625046
8.648829431438127,8.071701073726077
8.668896321070234,8.10668115180073
8.68896321070234,8.14062577615437
8.709030100334449,8.17342289634154
8.729096989966555,8.204965656861084
8.749163879598662,8.235152615641558
8.769230769230768,8.263887940161686
8.789297658862875,8.291081582984376
8.809364548494983,8.316649438397762
8.82943143812709,8.340513481757139
8.849498327759196,8.362601893012
8.869565217391303,8.382849165785474
8.889632107023411,8.401196203252054
8.909698996655518,8.417590401935986
8.929765886287624,8.431985724428356
8.949832775919733,8.444342761896726
8.96989966555184,8.454628787138677
8.989966555183946,8.462817798809205
9.010033444816054,8.46889055733261
9.030100334448159,8.472834612891747
9.050167224080267,8.474644325771287
9.070234113712376,8.474320879216547
9.09030100334448,8.471872284854856
9.110367892976589,8.467313380611994
9.130434782608695,8.46066582094177
9.150501672240802,8.45195805907049
9.17056856187291,8.441225320841482
9.190635451505017,8.428509569625552
9.210702341137123,8.413859461642287
9.23076923076923,8.397330290914141
9.250836120401337,8.378983922950049
9.270903010033445,8.358888716128622
9.290969899665551,8.337119429623597
9.311036789297658,8.31375711658687
9.331103678929765,8.28888900117928
9.351170568561873,8.262608337917529
9.37123745819398,8.23501425169122
9.391304347826086,8.206211556698342
9.411371237458194,8.176310552456592
9.4314381270903,8.145426794974707
9.451505016722408,8.113680841118748
9.471571906354516,8.081197964188823
9.49163879598662,8.04810783873869
9.511705685618729,8.014544192731721
9.531772575250837,7.9806444252388395
9.551839464882942,7.946549188056178
9.57190635451505,7.91240192985892
9.591973244147155,7.878348401821739
9.612040133779264,7.844536124030571
9.632107023411372,7.811113812491144
9.652173913043477,7.778230767108954
9.672240802675585,7.746036221673863
9.692307692307692,7.714678657626575
9.712374581939798,7.684305084207481
9.732441471571907,7.655060288478395
9.752508361204013,7.627086059648316
9.77257525083612,7.600520393103914
9.792642140468226,7.575496680516805
9.812709030100335,7.552142893341771
9.832775919732441,7.530580767897595
9.852842809364548,7.510925000997123
9.872909698996656,7.493282465726626
9.89297658862876,7.477751457429003
9.91304347826087,7.464420980185144
9.933110367892976,7.453370084084474
9.953177257525082,7.444667263307063
9.97324414715719,7.438369924494018
9.993311036789297,7.4345239340600715
10.013377926421404,7.433163252014113
10.033444816053512,7.4343096585245325
10.053511705685617,7.437972577933776
10.073578595317725,7.444149003237379
10.093645484949834,7.452823522252712
10.113712374581938,7.46396844487327
10.133779264214047,7.4775440289981
10.153846153846153,7.4934988010053
10.17391304347826,7.511769965060639
10.193979933110368,7.532283894165641
10.214046822742475,7.5549566946949005
10.234113712374581,7.579694835275838
10.254180602006688,7.606395830241071
10.274247491638796,7.634948967537386
10.294314381270903,7.665236070895104
10.31438127090301,7.697132286229852
10.334448160535118,7.730506882636866
10.354515050167223,7.765224058913254
10.37458193979933,7.80114374726827
10.394648829431437,7.83812240671872
10.414715719063544,7.876013799576495
10.434782608695652,7.914669745384084
10.454849498327757,7.953940847608368
10.474916387959865,7.993677189336751
10.494983277591974,8.033728995108973
10.515050167224079,8.07394725684568
10.535117056856187,8.114184322588653
10.555183946488295,8.154294447438689
10.5752508361204,8.194134306661153
10.595317725752508,8.233563471427896
10.615384615384615,8.272444848075308
10.635451505016722,8.310645082091057
10.65551839464883,8.348034928298627
10.675585284280936,8.384489588898093
10.695652173913043,8.419889021150038
10.71571906354515,8.454118216566284
10.735785953177256,8.487067453501515
10.755852842809364,8.51863252503305
10.775919732441471,8.548714943978624
10.795986622073578,8.577222126837905
10.816053511705684,8.604067558361361
10.836120401337793,8.629170938351848
10.856187290969899,8.652458312195442
10.876254180602006,8.673862186501795
10.896321070234114,8.693321631112143
10.916387959866219,8.710782368609781
10.936454849498327,8.726196852341472
10.956521739130435,8.739524333833506
10.97658862876254,8.750730920361498
10.996655518394649,8.759789623309647
11.016722408026755,8.76668039783386
11.036789297658862,8.771390174222867
