Time (s),Filtered Signal
0.0,0.02783222352037877
0.033370535714285714,-0.5850037241318985
0.06674107142857143,-0.9809024741304577
0.10011160714285713,-1.0075728535479502
0.13348214285714285,-0.6216627575105647
0.16685267857142858,0.10135869328376176
0.20022321428571427,0.993980918461333
0.23359375,1.850378096601074
0.2669642857142857,2.488744650158002
0.30033482142857143,2.801619876798628
0.33370535714285715,2.7784673229515846
0.36707589285714287,2.495163948090441
0.40044642857142854,2.07708861185684
0.43381696428571426,1.6514316061317207
0.4671875,1.306649626602838
0.5005580357142857,1.0721594382441006
0.5339285714285714,0.9221166323155293
0.5672991071428571,0.7977855824864665
0.6006696428571429,0.6372274470111942
0.6340401785714286,0.4003489176848099
0.6674107142857143,0.08110758400238267
0.70078125,-0.29518492910900923
0.7341517857142857,-0.6854971468746994
0.7675223214285715,-1.0460232908556757
0.8008928571428571,-1.344809248639275
0.8342633928571428,-1.5658407759960293
0.8676339285714285,-1.7053458446763519
0.9010044642857142,-1.7649132542013415
0.934375,-1.7467618935976597
0.9677455357142857,-1.654029934965108
1.0011160714285714,-1.4951172101079007
1.0344866071428571,-1.28832419202788
1.0678571428571428,-1.06273343861642
1.1012276785714286,-0.8533044717083462
1.1345982142857143,-0.6912018506551343
1.16796875,-0.5929438871513296
1.2013392857142857,-0.5529837040711467
1.2347098214285714,-0.5434212052812329
1.2680803571428572,-0.5219877794429891
1.3014508928571429,-0.4461588950409635
1.3348214285714286,-0.2885281992759858
1.3681919642857143,-0.04762786151400457
1.4015625,0.2502272353396693
1.4349330357142858,0.5591680016931068
1.4683035714285715,0.8292005615240882
1.5016741071428572,1.0230043323249234
1.535044642857143,1.1276078204876883
1.5684151785714286,1.1564415787596996
1.6017857142857141,1.1411185089147335
1.6351562499999999,1.1164079763117498
1.6685267857142856,1.1045658471625093
1.7018973214285713,1.1054116743577578
1.735267857142857,1.09627622645016
1.7686383928571427,1.0420668997510842
1.8020089285714285,0.9116333577771513
1.8353794642857142,0.6938528830481472
1.86875,0.4065324755398559
1.9021205357142856,0.0937163445934561
1.9354910714285714,-0.18840657492965646
1.968861607142857,-0.39181643215503065
2.002232142857143,-0.4948514550034274
2.0356026785714287,-0.5102383497738802
2.0689732142857142,-0.47893381709937843
2.10234375,-0.45189202129322736
2.1357142857142857,-0.46742001500634583
2.169084821428571,-0.5340649683573698
2.202455357142857,-0.626749535230402
2.2358258928571426,-0.698021330592583
2.2691964285714286,-0.6994668707272286
2.302566964285714,-0.6037319692640671
2.3359375,-0.4173670176302549
2.3693080357142855,-0.1790133149742022
2.4026785714285714,0.05575645680544244
2.436049107142857,0.23561086219133434
2.469419642857143,0.3310012513646321
2.5027901785714284,0.34086702256541296
2.5361607142857143,0.28705098309562616
2.56953125,0.20091104300614074
2.6029017857142858,0.10967706561216108
2.6362723214285713,0.028943311149994058
2.669642857142857,-0.036665383968532965
2.7030133928571427,-0.08744465691045923
2.7363839285714286,-0.12248325803485846
2.769754464285714,-0.13773012016792696
2.803125,-0.12896280180451133
2.8364955357142856,-0.09677558488251585
2.8698660714285715,-0.049423590242868236
2.903236607142857,-0.0010370724464929568
2.936607142857143,0.03397897253368621
2.9699776785714285,0.046934194091450665
3.0033482142857144,0.037595029450529414
3.03671875,0.012256296145713259
3.070089285714286,-0.021233727871864196
3.1034598214285714,-0.05807005679612622
3.1368303571428573,-0.09788585114011092
3.170200892857143,-0.14257776872629907
3.2035714285714283,-0.1926771875614778
3.2369419642857142,-0.24512351393342494
3.2703124999999997,-0.2938671592432351
3.3036830357142857,-0.3323174152496933
3.337053571428571,-0.3551469543897854
3.370424107142857,-0.357582191659209
3.4037946428571426,-0.3326833982020138
3.4371651785714286,-0.2694936740169778
3.470535714285714,-0.15532356514876997
3.50390625,0.01694722342456546
3.5372767857142855,0.2396402925220399
3.5706473214285714,0.48512127039203096
3.604017857142857,0.7101037922695893
3.637388392857143,0.8701839140046627
3.6707589285714284,0.9389463245319449
3.7041294642857143,0.9216269155309228
3.7375,0.8543062407060688
3.7708705357142858,0.7863845947710847
3.8042410714285713,0.7534962493389129
3.837611607142857,0.7547253571612637
3.8709821428571427,0.7475248855108028
3.9043526785714286,0.6654608050993606
3.937723214285714,0.4518294591599269
3.97109375,0.09297074527865375
4.004464285714286,-0.36588189907783975
4.0378348214285715,-0.8312481079098059
4.0712053571428575,-1.1945999300089865
4.1045758928571425,-1.3732288524859164
4.1379464285714285,-1.3405493849109027
4.171316964285714,-1.1331356458719255
4.2046875,-0.8328897772536534
4.238058035714285,-0.5337115379392195
4.271428571428571,-0.30782938473756427
4.304799107142857,-0.1854584690307318
4.338169642857142,-0.15411269640261083
4.371540178571428,-0.17465751361087836
4.404910714285714,-0.2044313390045016
4.43828125,-0.2162372354048
4.471651785714285,-0.20570361961062406
4.505022321428571,-0.1859840879413419
4.538392857142857,-0.17461308784780122
4.571763392857143,-0.1799917935861608
4.605133928571428,-0.19383781311253725
4.638504464285714,-0.19229204506937284
4.671875,-0.14441041816949945
4.705245535714286,-0.024228722917018792
4.738616071428571,0.17796936956049514
4.771986607142857,0.44866246324744025
4.805357142857143,0.7504322813038761
4.838727678571429,1.028278012933449
4.872098214285714,1.2221403263320814
4.90546875,1.2832118221334967
4.938839285714286,1.1897843867972122
4.972209821428572,0.9571583907072578
5.005580357142857,0.6366986681362768
5.038950892857143,0.3022215202211086
5.072321428571429,0.026942681061624296
5.105691964285715,-0.14094469320353029
5.1390625,-0.19413193802684245
5.172433035714286,-0.16635777543893487
5.2058035714285715,-0.11639285297208482
5.2391741071428575,-0.10273973649615589
5.2725446428571425,-0.16018327096314985
5.3059151785714285,-0.28815810287172205
5.339285714285714,-0.4549782763726226
5.3726562499999995,-0.6144779771142727
5.406026785714285,-0.7263709294709803
5.439397321428571,-0.771000023102087
5.472767857142857,-0.752892705030579
5.506138392857142,-0.6933037418232908
5.539508928571428,-0.61674829103903
5.572879464285714,-0.5384027026890839
5.60625,-0.4578987005728443
5.639620535714285,-0.361628508962342
5.672991071428571,-0.23194281468802064
5.706361607142857,-0.05897758270312346
5.739732142857143,0.1500237854933632
5.773102678571428,0.3680970736081917
5.806473214285714,0.5544910334824369
5.83984375,0.6677757648716512
5.873214285714286,0.6815886869768227
5.906584821428571,0.5966046212447961
5.939955357142857,0.4429569932310835
5.973325892857143,0.2708857937650794
6.006696428571429,0.1326644028524622
6.040066964285714,0.06328552594739596
6.0734375,0.06836033125451527
6.106808035714286,0.12435335368241444
6.140178571428572,0.19035849088104162
6.173549107142857,0.2254361627891819
6.206919642857143,0.20382845409097528
6.240290178571429,0.12258463635253153
6.273660714285715,0.00035271776096055147
6.30703125,-0.1303504527456221
6.340401785714286,-0.23374646248806888
6.3737723214285715,-0.2812191611644786
6.407142857142857,-0.2595692297330076
6.4405133928571425,-0.1755882896234864
6.4738839285714285,-0.05543741097034247
6.507254464285714,0.06215123962847677
6.5406249999999995,0.13798990712010495
6.573995535714285,0.14630144117607027
6.607366071428571,0.08481508377464507
6.640736607142857,-0.023911808972462617
6.674107142857142,-0.14149793594670704
6.707477678571428,-0.2296603819218368
6.740848214285714,-0.2658579646951019
6.77421875,-0.2511854699174502
6.807589285714285,-0.20677268310881883
6.840959821428571,-0.16081436643584632
6.874330357142857,-0.13317778812647696
6.907700892857143,-0.12561671814309017
6.941071428571428,-0.1223925977273954
6.974441964285714,-0.10043648526080005
7.0078125,-0.043255006911354754
7.041183035714286,0.04880240845415566
7.074553571428571,0.1569330732605621
7.107924107142857,0.25120187984644654
7.141294642857143,0.3026377787592284
7.174665178571429,0.2940941320020243
7.208035714285714,0.22525904684309314
7.24140625,0.11074790998040807
7.274776785714286,-0.026247519382658773
7.308147321428572,-0.160699275165542
7.341517857142857,-0.26987678457836056
7.374888392857143,-0.3346128918779559
7.408258928571429,-0.3398653146632914
7.441629464285715,-0.2771148668169542
7.475,-0.14916202244114668
7.508370535714286,0.02508497103760874
7.5417410714285715,0.21001934917194764
7.575111607142857,0.36017933111901296
7.6084821428571425,0.43419035339190704
7.6418526785714285,0.4110698226477044
7.675223214285714,0.3014576579701021
7.7085937499999995,0.14724269917796512
7.741964285714285,0.007720820230517901
7.775334821428571,-0.0631202024846601
7.808705357142857,-0.03865635575936582
7.842075892857142,0.0690155952009497
7.875446428571428,0.21386184986250406
7.908816964285714,0.3347767133787379
7.9421875,0.37996394607442796
7.975558035714285,0.3260904603488814
8.008928571428571,0.18451651732849275
8.042299107142856,-0.006682214959476401
8.075669642857143,-0.19980703620114676
8.109040178571428,-0.3553269737735631
8.142410714285715,-0.4528741323995249
8.17578125,-0.492147223917327
8.209151785714285,-0.48554205523385013
8.242522321428572,-0.4478784862739628
8.275892857142857,-0.3890724125510153
8.309263392857142,-0.31304660868038975
8.342633928571429,-0.22209482514322404
8.376004464285714,-0.12258197536806142
8.409375,-0.027178483027925898
8.442745535714286,0.048756751335182855
8.47611607142857,0.09488882995897054
8.509486607142858,0.11265304811132218
8.542857142857143,0.11579178421539922
8.576227678571428,0.12289943916636109
8.609598214285715,0.14545375004841937
8.64296875,0.17856017139917812
8.676339285714285,0.20110436344492116
8.709709821428572,0.1869203049820537
8.743080357142857,0.12167339144421337
8.776450892857143,0.015720342513997447
8.809821428571428,-0.09558821173518503
8.843191964285714,-0.16601526788440102
8.8765625,-0.16035695401266242
8.909933035714285,-0.07248472898112521
8.94330357142857,0.0705738260478774
8.976674107142857,0.22099236773768255
9.010044642857142,0.33225063850022
9.04341517857143,0.3790344977812506
9.076785714285714,0.3646833762579467
9.11015625,0.3133893977020691
9.143526785714286,0.2529449468095505
9.176897321428571,0.19854582020983907
9.210267857142856,0.14657849198577497
9.243638392857143,0.08086268157751955
9.277008928571428,-0.01345724183016702
9.310379464285715,-0.13714108555644933
9.34375,-0.2727206140118989
9.377120535714285,-0.3911969940097323
9.410491071428572,-0.46558219575160686
9.443861607142857,-0.48366925447120956
9.477232142857142,-0.4531044031008273
9.510602678571429,-0.3962083486773654
9.543973214285714,-0.3375293718325006
9.57734375,-0.2908215921090385
9.610714285714286,-0.2521758130875471
9.64408482142857,-0.20260541185332065
9.677455357142858,-0.11855708227145981
9.710825892857143,0.014824595306616813
9.744196428571428,0.19368026696889587
9.777566964285715,0.39280230988810155
9.8109375,0.5713405342846491
9.844308035714285,0.6848209746067236
9.877678571428572,0.6995044425115444
9.911049107142857,0.604387202217839
9.944419642857143,0.41665518995097806
9.977790178571428,0.17819203572770187
10.011160714285714,-0.056378845835580206
10.04453125,-0.2364486526008144
10.077901785714285,-0.3310996063184747
10.11127232142857,-0.3377868236467505
10.144642857142857,-0.2805562821509976
10.178013392857142,-0.19844140868296736
10.21138392857143,-0.12879332396499135
10.244754464285714,-0.09259183887673576
10.278125,-0.08804702983579249
10.311495535714286,-0.09509269565412282
10.344866071428571,-0.0882471003083626
10.378236607142856,-0.051269737194352134
10.411607142857143,0.013758190770345805
10.444977678571428,0.08731708475497965
10.478348214285715,0.14243575230882805
10.51171875,0.15821308712187374
10.545089285714285,0.1296629811089224
10.578459821428572,0.06893515092390234
10.611830357142857,-0.0021656598674497443
10.645200892857142,-0.0636851988273773
10.678571428571429,-0.10636911755165403
10.711941964285714,-0.13301140807438486
10.745312499999999,-0.1520639417215073
10.778683035714286,-0.16799567835709694
10.81205357142857,-0.1749625069921991
10.845424107142858,-0.15844959137898335
10.878794642857143,-0.10465877251194945
10.912165178571428,-0.012372522745959158
10.945535714285715,0.10008736872961041
10.97890625,0.19795589517912418
11.012276785714285,0.2429362150910153
11.045647321428572,0.2102209645873116
11.079017857142857,0.1014369756896565
11.112388392857143,-0.05291402887108497
11.145758928571428,-0.2030402736856237
11.179129464285714,-0.29753386178274505
11.2125,-0.3017801488267652
11.245870535714285,-0.20973647136630308
11.27924107142857,-0.044822601508408805
11.312611607142857,0.14967288181018645
11.345982142857142,0.32611058893366457
11.37935267857143,0.44743903990092626
11.412723214285714,0.4960141580304765
11.44609375,0.47403294688507286
11.479464285714286,0.3972464629845187
11.512834821428571,0.2862722484728779
11.546205357142856,0.15997836739935634
11.579575892857143,0.033213878178362244
11.612946428571428,-0.08193963146139231
11.646316964285715,-0.17432993385434378
11.6796875,-0.2341412874336413
11.713058035714285,-0.25624284415280474
11.746428571428572,-0.24446683278282222
11.779799107142857,-0.2133623179011241
11.813169642857142,-0.18484847317988357
11.846540178571429,-0.17998420712588775
11.879910714285714,-0.20915179724304483
11.913281249999999,-0.2654838509631755
11.946651785714286,-0.3253999346945052
11.98002232142857,-0.3570879455756982
12.013392857142858,-0.33410330630141577
12.046763392857143,-0.24859481870503228
12.080133928571428,-0.11812757914005419
12.113504464285715,0.01798519256360696
12.146875,0.11293989672493886
12.180245535714285,0.13257428959747591
12.213616071428572,0.0729578978174915
12.246986607142857,-0.03344172997293416
12.280357142857143,-0.12796088602118136
12.313727678571428,-0.14984660081186585
12.347098214285714,-0.06421913992000369
12.38046875,0.11962671572579442
12.413839285714285,0.3496584045084185
12.44720982142857,0.552916874499097
12.480580357142857,0.6676294711122674
12.513950892857142,0.6696561919637494
12.54732142857143,0.5799395254221149
12.580691964285714,0.4496542745804791
12.6140625,0.3316429703569166
12.647433035714286,0.25380534923045106
12.680803571428571,0.20849195174140225
12.714174107142856,0.1627016146083856
12.747544642857143,0.08229225679180266
12.780915178571428,-0.04408144796146471
12.814285714285713,-0.1949970207703921
12.84765625,-0.3258363729297395
12.881026785714285,-0.39250846968210373
12.914397321428572,-0.37617461242079997
12.947767857142857,-0.29536964698359475
12.981138392857142,-0.1987432647981627
13.014508928571429,-0.14192624780932922
13.047879464285714,-0.16031910411124978
13.081249999999999,-0.251700334106077
13.114620535714286,-0.3774928306431138
13.14799107142857,-0.4819593460097924
13.181361607142858,-0.5194567247158886
13.214732142857143,-0.475909603480985
13.248102678571428,-0.37392279642370185
13.281473214285715,-0.25962155358680483
13.31484375,-0.17866371196395864
13.348214285714285,-0.1539423269137639
13.381584821428572,-0.17587444264584906
13.414955357142857,-0.20916853328489002
13.448325892857143,-0.21159452756410219
13.481696428571428,-0.15483169889037784
13.515066964285714,-0.03726411602339999
13.5484375,0.11684970384523749
13.581808035714285,0.27067286178703936
13.61517857142857,0.3936620033535792
13.648549107142857,0.47676236304208014
13.681919642857142,0.5364535310957316
13.71529017857143,0.6052211882994151
13.748660714285714,0.7122629684793639
13.78203125,0.863105604245949
13.815401785714286,1.0281641964436468
13.848772321428571,1.147186139221631
13.882142857142856,1.1498432804889234
13.915513392857143,0.9850715140698217
13.948883928571428,0.6466349048080715
13.982254464285713,0.18271180078988364
14.015625,-0.31634396614403243
14.048995535714285,-0.7480613412410252
14.082366071428572,-1.0331706183637304
14.115736607142857,-1.1409333188499522
14.149107142857142,-1.0940088520713185
14.182477678571429,-0.9521517975026944
14.215848214285714,-0.7836601866102965
14.249218749999999,-0.6381738002808531
14.282589285714286,-0.5322787922592812
14.31595982142857,-0.4521687409115983
14.349330357142858,-0.36938833504867236
14.382700892857143,-0.26043122139731356
14.416071428571428,-0.12065286012137767
14.449441964285715,0.0330592525193906
14.4828125,0.17062729518293515
14.516183035714285,0.26312016228437607
14.549553571428572,0.2961085731200537
14.582924107142857,0.27622693123201775
14.616294642857143,0.2284577345353864
14.649665178571428,0.18558508263670567
14.683035714285714,0.1743208216499423
14.71640625,0.2038184922985788
14.749776785714285,0.2613492404655106
14.78314732142857,0.3171712565640407
14.816517857142857,0.336995937810928
14.849888392857142,0.29722402527111214
14.88325892857143,0.19659759494384232
14.916629464285714,0.05893193263018008
14.95,-0.07493318238370043
14.983370535714286,-0.16311773984163777
15.016741071428571,-0.1799017485777931
15.050111607142856,-0.12639967893954338
15.083482142857143,-0.0296572871231502
15.116852678571428,0.069503047082151
15.150223214285713,0.13412529752191032
15.18359375,0.14588362136463445
15.216964285714285,0.11028384793115065
15.250334821428572,0.05066040781122871
15.283705357142857,-0.005084281418323479
15.317075892857142,-0.03790567232909704
15.350446428571429,-0.04484500349525958
15.383816964285714,-0.03750030024265985
15.417187499999999,-0.03374516138390742
15.450558035714286,-0.04764892080788209
15.48392857142857,-0.08267715558487242
15.517299107142858,-0.13089724646248688
15.550669642857143,-0.17755553306230398
15.584040178571428,-0.20781158296609423
15.617410714285715,-0.21185873543633954
15.65078125,-0.1862617432038109
15.684151785714285,-0.13203555861623362
15.717522321428572,-0.05206788705444966
15.750892857142857,0.04937891424624479
15.784263392857143,0.16425277570470623
15.817633928571428,0.2772362866906779
15.851004464285714,0.36471703440313996
15.884375,0.3990723367118277
15.917745535714285,0.35828509424898763
15.95111607142857,0.2372924388496691
15.984486607142857,0.0552090170212909
16.017857142857142,-0.14668201494508293
16.05122767857143,-0.3173632761138704
16.084598214285712,-0.4147625968816782
16.11796875,-0.4225144778189088
16.151339285714286,-0.35650648615617553
16.18470982142857,-0.2571876819264091
16.218080357142856,-0.17043644360399146
16.251450892857143,-0.12572959350024757
16.28482142857143,-0.12223568312311903
16.318191964285713,-0.13004885876027775
16.3515625,-0.10654860955825536
16.384933035714287,-0.020296684069008378
16.41830357142857,0.12924682280597943
16.451674107142857,0.3063952808569067
16.485044642857144,0.4518882250835464
16.518415178571427,0.50847613100066
16.551785714285714,0.4478746273665188
16.58515625,0.286357552432647
16.618526785714284,0.08113184475230169
16.65189732142857,-0.09164651400592096
16.685267857142858,-0.1678684595772534
16.71863839285714,-0.12188097703796848
16.752008928571428,0.023288968364494008
16.785379464285715,0.2061961454181761
16.81875,0.35288214019426695
16.852120535714285,0.40685320293681676
16.88549107142857,0.35025783309746156
16.91886160714286,0.2078845584399558
16.95223214285714,0.03354354227592291
16.98560267857143,-0.11403681721834519
17.018973214285715,-0.1948720619688847
17.05234375,-0.20134851140799256
17.085714285714285,-0.15749894236423373
17.119084821428572,-0.10597318697375359
17.152455357142856,-0.08929250598258462
17.185825892857142,-0.1331659815064468
17.21919642857143,-0.23772315643915154
17.252566964285712,-0.3788911629556374
17.2859375,-0.5184220591791742
17.319308035714286,-0.6183854889578095
17.35267857142857,-0.6548040396468344
17.386049107142856,-0.6256172699521737
17.419419642857143,-0.5501289145569239
17.45279017857143,-0.4600389457408219
17.486160714285713,-0.3852602532309664
17.51953125,-0.33990770108616974
17.552901785714287,-0.31418479223163887
17.58627232142857,-0.2760192352658357
17.619642857142857,-0.1827198387637125
17.653013392857144,0.0010829943931697423
17.686383928571427,0.2858216393799788
