Frequency (Hz),Amplitude
0.0,5.939764795896348
0.019801980198019802,5.938411432494694
0.039603960396039604,5.934354910431609
0.0594059405940594,5.927605936859526
0.07920792079207921,5.918182366092591
0.09900990099009901,5.906109213092983
0.1188118811881188,5.89141867213844
0.13861386138613863,5.8741501404435335
0.15841584158415842,5.8543502464223796
0.1782178217821782,5.832072882179476
0.19801980198019803,5.807379239695109
0.21782178217821782,5.780337850027453
0.2376237623762376,5.751024624680594
0.25742574257425743,5.719522898081332
0.27722772277227725,5.685923469862829
0.297029702970297,5.650324645364042
0.31683168316831684,5.612832272415257
0.33663366336633666,5.573559772086991
0.3564356435643564,5.532628160625757
0.37623762376237624,5.490166059283659
0.39603960396039606,5.446309688164423
0.4158415841584158,5.40120283955727
0.43564356435643564,5.354996825513889
0.45544554455445546,5.307850393647697
0.4752475247524752,5.259929604312231
0.495049504950495,5.2114076614634035
0.5148514851485149,5.162464688656404
0.5346534653465347,5.113287440808684
0.5544554455445545,5.064068941625226
0.5742574257425742,5.015008035991861
0.594059405940594,4.966308846274208
0.613861386138614,4.91818012140205
0.6336633663366337,4.870834467974467
0.6534653465346534,4.824487453499557
0.6732673267326733,4.779356573397536
0.6930693069306931,4.735660075654608
0.7128712871287128,4.693615640106062
0.7326732673267327,4.653438913307486
0.7524752475247525,4.615341904829763
0.7722772277227723,4.579531256526888
0.7920792079207921,4.546206402731807
0.8118811881188118,4.515557646197414
0.8316831683168316,4.487764181578087
0.8514851485148516,4.46299210491397
0.8712871287128713,4.441392453433061
0.891089108910891,4.423099324488408
0.9108910891089109,4.4082281250773745
0.9306930693069307,4.396874003695953
0.9504950495049505,4.389110513950024
0.9702970297029703,4.384988554252232
0.99009900990099,4.384535620183257
1.00990099009901,4.387755396037527
1.0297029702970297,4.394627700278773
1.0495049504950495,4.4051087868522005
1.0693069306930694,4.41913199139041
1.0891089108910892,4.436608699178781
1.108910891089109,4.457429601102128
1.1287128712871286,4.481466195310661
1.1485148514851484,4.508572486437744
1.1683168316831685,4.538586831051045
1.188118811881188,4.571333877563759
1.2079207920792079,4.6066265508096
1.227722772277228,4.644268035479259
1.2475247524752475,4.68405371811893
1.2673267326732673,4.725773053865477
1.2871287128712872,4.7692113310218405
1.3069306930693068,4.814151313507439
1.3267326732673268,4.860374747784627
1.3465346534653466,4.907663726796366
1.3663366336633662,4.955801908583037
1.3861386138613863,5.004575591492381
1.405940594059406,5.0537746512469
1.4257425742574257,5.103193347630365
1.4455445544554455,5.152631010280579
1.4653465346534653,5.201892614132326
1.4851485148514851,5.250789255554531
1.504950495049505,5.2991385402815805
1.5247524752475248,5.346764893953699
1.5445544554455446,5.393499805551249
1.5643564356435644,5.4391820133092
1.5841584158415842,5.483657641900441
1.6039603960396038,5.526780298829859
1.6237623762376237,5.568411137127119
1.6435643564356437,5.608418890593372
1.6633663366336633,5.646679887067793
1.683168316831683,5.683078044445654
1.7029702970297032,5.717504853509735
1.7227722772277227,5.749859351033861
1.7425742574257426,5.780048086080941
1.7623762376237624,5.807985081947287
1.782178217821782,5.833591795794297
1.801980198019802,5.856797077655308
1.8217821782178218,5.877537130202193
1.8415841584158414,5.895755470399552
1.8613861386138615,5.911402893957805
1.881188118811881,5.924437443313639
1.900990099009901,5.934824379715195
1.920792079207921,5.942536159862532
1.9405940594059405,5.947552417447533
1.9603960396039604,5.949859949849238
1.98019801980198,5.949452710163802
2.0,5.9463318046822105
2.01980198019802,5.940505495867511
2.0396039603960396,5.931989210825951
2.0594059405940595,5.9208055552067655
2.0792079207920793,5.906984332403169
2.099009900990099,5.890562567856818
2.118811881188119,5.871584538186705
2.1386138613861387,5.850101804768247
2.1584158415841586,5.8261732512738575
2.1782178217821784,5.799865124549491
2.1980198019801978,5.771251078037129
2.217821782178218,5.740412216756731
2.237623762376238,5.707437142626957
2.257425742574257,5.672421998626776
2.2772277227722775,5.635470509974873
2.297029702970297,5.596694020123628
2.3168316831683167,5.556211518926008
2.336633663366337,5.51414965983019
2.3564356435643563,5.470642762387204
2.376237623762376,5.425832795716946
2.3960396039603964,5.379869337871512
2.4158415841584158,5.332909505264009
2.4356435643564356,5.285117845507578
2.455445544554456,5.236666186148363
2.4752475247524752,5.187733430901787
2.495049504950495,5.138505294148296
2.514851485148515,5.089173963657721
2.5346534653465347,5.0399376808488805
2.5544554455445545,4.991000227426852
2.5742574257425743,4.942570307059697
2.594059405940594,4.894860810960712
2.6138613861386135,4.848087956941996
2.633663366336634,4.802470292815033
2.6534653465346536,4.758227557047663
2.673267326732673,4.715579392443626
2.6930693069306932,4.674743912359852
2.712871287128713,4.6359361236464665
2.7326732673267324,4.599366216045376
2.7524752475247527,4.565237734101495
2.7722772277227725,4.533745654511326
2.792079207920792,4.505074398947933
2.811881188118812,4.479395819345082
2.8316831683168315,4.45686719890629
2.8514851485148514,4.437629317183739
2.8712871287128716,4.421804630902143
2.891089108910891,4.409495623294151
2.910891089108911,4.4007833731956465
2.9306930693069306,4.395726390828665
2.9504950495049505,4.394359760111913
2.9702970297029703,4.3966946177596435
2.99009900990099,4.40271798788547
3.00990099009901,4.412392978032946
3.0297029702970297,4.425659329363583
3.0495049504950495,4.442434301036044
3.0693069306930694,4.462613857448679
3.089108910891089,4.4860741176910555
3.108910891089109,4.5126730197530485
3.128712871287129,4.5422521480259
3.148514851485148,4.574638671402941
3.1683168316831685,4.609647340635349
3.1881188118811883,4.647082497133407
3.2079207920792077,4.6867400506260335
3.227722772277228,4.7284093894572505
3.2475247524752473,4.771875194266521
3.267326732673267,4.8169191328897565
3.2871287128712874,4.863321421126677
3.3069306930693068,4.9108622402501405
3.3267326732673266,4.959323007581435
3.346534653465347,5.008487501017295
3.366336633663366,5.058142842038928
3.386138613861386,5.108080344493102
3.4059405940594063,5.158096238384932
3.4257425742574257,5.207992279160736
3.4455445544554455,5.257576253602902
3.4653465346534653,5.306662393619095
3.485148514851485,5.355071708997578
3.504950495049505,5.40263224971489
3.5247524752475248,5.4491793077088255
3.5445544554455446,5.4945555672378115
3.564356435643564,5.538611212095085
3.5841584158415842,5.581203997077007
3.603960396039604,5.622199290250765
3.6237623762376234,5.661470091752542
3.6435643564356437,5.698897034086673
3.6633663366336635,5.734368368199947
3.683168316831683,5.7677799389757265
3.702970297029703,5.799035153232877
3.722772277227723,5.828044942820161
3.7425742574257423,5.8547277249668195
3.762376237623762,5.879009361677922
3.7821782178217824,5.900823119644563
3.801980198019802,5.920109631868293
3.8217821782178216,5.936816861970465
3.841584158415842,5.95090007196553
3.8613861386138613,5.962321794117235
3.881188118811881,5.971051807363543
3.9009900990099013,5.977067118685113
3.9207920792079207,5.980351949699516
3.9405940594059405,5.980897728684633
3.96039603960396,5.978703088166872
3.98019801980198,5.973773868148366
4.0,5.966123124990022
4.01980198019802,5.955771145910265
4.03960396039604,5.942745468998443
4.0594059405940595,5.927080908575921
4.079207920792079,5.908819585660838
4.099009900990099,5.888010963202094
4.118811881188119,5.8647118856408085
4.138613861386139,5.838986622227082
4.158415841584159,5.810906913364317
4.178217821782178,5.78055201906526
4.198019801980198,5.748008768380159
4.217821782178218,5.713371608390705
4.237623762376238,5.676742651049158
4.257425742574258,5.6382317157736965
4.2772277227722775,5.597956365283298
4.297029702970297,5.556041931662953
4.316831683168317,5.512621529088578
4.336633663366336,5.4678360490085005
4.356435643564357,5.421834132873468
4.376237623762377,5.3747721167343245
4.3960396039603955,5.326813941192841
4.415841584158416,5.278131019310093
4.435643564356436,5.2289020541713604
4.455445544554455,5.17931279690563
4.475247524752476,5.129555735106533
4.4950495049504955,5.079829700852821
4.514851485148514,5.030339386952654
4.534653465346535,4.981294759720459
4.554455445544555,4.932910356638422
4.574257425742574,4.885404457768384
4.594059405940594,4.838998120883631
4.613861386138614,4.793914072104245
4.633663366336633,4.750375446455051
4.653465346534653,4.708604376307139
4.673267326732674,4.668820430161122
4.693069306930693,4.631238909667783
4.712871287128713,4.596069019070219
4.732673267326733,4.563511928206489
4.752475247524752,4.533758757541935
4.772277227722772,4.506988521012463
4.792079207920793,4.483366069264204
4.811881188118812,4.463040081617981
4.8316831683168315,4.446141159194305
4.851485148514852,4.4327800735682725
4.871287128712871,4.423046224649087
4.891089108910891,4.417006357929504
4.910891089108912,4.414703584783862
4.930693069306931,4.416156740320003
4.9504950495049505,4.4213601018810245
4.97029702970297,4.430283478342173
4.99009900990099,4.442872666711537
5.00990099009901,4.4590502591516135
5.02970297029703,4.478716771293142
5.0495049504950495,4.5017520523951475
5.069306930693069,4.528016930097235
5.089108910891089,4.557355037548126
5.108910891089109,4.589594768653274
5.128712871287129,4.624551307898731
5.148514851485149,4.662028684316688
5.1683168316831685,4.701821804164127
5.188118811881188,4.7437184232264
5.207920792079208,4.787501026763229
5.227722772277227,4.832948592463795
5.247524752475248,4.879838218928784
5.267326732673268,4.92794660881118
5.2871287128712865,4.977051401590907
5.306930693069307,5.026932355897567
5.326732673267327,5.07737238528289
5.346534653465346,5.128158454400376
5.366336633663367,5.179082344743493
5.3861386138613865,5.229941300524891
5.405940594059405,5.280538566065911
5.425742574257426,5.330683826326099
5.445544554455446,5.380193562053996
5.465346534653465,5.428891330587776
5.485148514851486,5.476607982669144
5.504950495049505,5.523181824832956
5.524752475247524,5.568458736060896
5.544554455445545,5.6122922464878675
5.564356435643565,5.654543585061511
5.584158415841584,5.695081702203564
5.603960396039604,5.733783272724638
5.623762376237624,5.770532683511338
5.643564356435643,5.805222009842109
5.663366336633663,5.837750983596843
5.683168316831684,5.868026956104241
5.702970297029703,5.89596485791541
5.7227722772277225,5.9214871573992935
5.742574257425743,5.944523819718054
5.762376237623762,5.965012267454618
5.782178217821782,5.982897343922235
5.801980198019803,5.998131279984026
5.821782178217822,6.010673665041209
5.841584158415841,6.020491422709146
5.861386138613861,6.027558791583858
5.881188118811881,6.0318573114055924
5.900990099009901,6.0333758148449945
5.920792079207921,6.032110425068316
5.9405940594059405,6.0280645591769675
5.96039603960396,6.021248937560431
5.98019801980198,6.011681599146288
6.0,5.9993879224739075
6.01980198019802,5.984400652455674
6.03960396039604,5.966759932617492
6.0594059405940595,5.946513342526153
6.079207920792079,5.923715940009268
6.099009900990099,5.898430307651316
6.118811881188119,5.870726602901237
6.138613861386139,5.8406826109478915
6.158415841584159,5.808383799305156
6.178217821782178,5.773923372791211
6.198019801980198,5.737402327282299
6.217821782178218,5.698929500262067
6.237623762376237,5.658621615768638
6.257425742574258,5.616603320856227
6.2772277227722775,5.573007210131831
6.297029702970296,5.5279738342955795
6.316831683168317,5.4816516879061306
6.336633663366337,5.434197170808644
6.356435643564356,5.385774516811217
6.376237623762377,5.336555682284868
6.396039603960396,5.286720186413615
6.415841584158415,5.236454893861306
6.435643564356436,5.185953729691456
6.455445544554456,5.135417315527508
6.475247524752475,5.085052515242394
6.495049504950495,5.035071878000669
6.514851485148515,4.985692966345036
6.534653465346534,4.937137557335202
6.554455445544554,4.889630705636131
6.574257425742575,4.8433996590449
6.594059405940594,4.798672619362812
6.6138613861386135,4.755677344868935
6.633663366336634,4.714639594999714
6.653465346534653,4.675781423201494
6.673267326732673,4.639319330235584
6.693069306930694,4.605462297320562
6.712871287128713,4.57440972612781
6.732673267326732,4.546349320421306
6.752475247524753,4.521454951563102
6.772277227722772,4.499884556621471
6.792079207920792,4.481778122806307
6.811881188118813,4.467255814822509
6.8316831683168315,4.456416301967294
6.851485148514851,4.449335339052217
6.871287128712871,4.446064649377258
6.891089108910891,4.446631149161829
6.910891089108911,4.4510365414621536
6.930693069306931,4.459257294352426
6.9504950495049505,4.471245003887932
6.97029702970297,4.486927128081805
6.99009900990099,4.506208064794493
7.00990099009901,4.528970534935158
7.02970297029703,4.555077223391552
7.0495049504950495,4.5843726240713725
7.069306930693069,4.616685032505559
7.089108910891089,4.651828629517975
7.108910891089109,4.689605602167864
7.128712871287128,4.729808253019923
7.148514851485149,4.772221055203321
7.1683168316831685,4.816622618073237
7.188118811881187,4.86278753601664
7.207920792079208,4.910488100554467
7.227722772277228,4.9594958630009724
7.247524752475247,5.00958304127428
7.267326732673268,5.0605237698479755
7.287128712871287,5.112095196224744
7.306930693069306,5.16407843070803
7.326732673267327,5.216259358713424
7.346534653465347,5.268429326499253
7.366336633663366,5.320385712127678
7.3861386138613865,5.3719323938232355
7.405940594059406,5.422880127797419
7.425742574257425,5.473046847172351
7.445544554455446,5.522257892962141
7.465346534653466,5.570346187241852
7.485148514851485,5.6171523577199105
7.504950495049505,5.662524821982945
7.524752475247524,5.706319838742829
7.544554455445544,5.748401532513066
7.564356435643565,5.788641897294952
7.584158415841584,5.826920784074597
7.603960396039604,5.863125876226891
7.623762376237624,5.897152656292863
7.643564356435643,5.928904367041477
7.663366336633663,5.9582919692426195
7.683168316831684,5.985234098159079
7.702970297029703,6.009657020407083
7.7227722772277225,6.03149459253052
7.742574257425743,6.050688222377361
7.762376237623762,6.06718683415281
7.782178217821782,6.080946837845051
7.801980198019803,6.091932103572801
7.821782178217822,6.100113941282179
7.841584158415841,6.105471086120722
7.861386138613862,6.107989689733367
7.881188118811881,6.1076633176555255
7.900990099009901,6.104492952917577
7.92079207920792,6.098487005920638
7.9405940594059405,6.089661330590731
7.96039603960396,6.078039246764864
7.980198019801979,6.063651568704171
8.0,6.04653663956287
8.01980198019802,6.026740371562909
8.03960396039604,6.004316291529969
8.05940594059406,5.9793255913312775
8.07920792079208,5.951837182615691
8.099009900990099,5.921927755086283
8.118811881188119,5.889681837329393
8.138613861386139,5.855191858976462
8.158415841584159,5.8185582126784405
8.178217821782178,5.77988931402201
8.198019801980198,5.739301657103684
8.217821782178218,5.69691986299742
8.237623762376238,5.652876717795459
8.257425742574258,5.607313196267957
8.277227722772277,5.560378466469533
8.297029702970297,5.512229869820873
8.316831683168317,5.46303287031434
8.336633663366337,5.412960965542946
8.356435643564357,5.362195551248834
8.376237623762377,5.310925730054953
8.396039603960396,5.2593480540203235
8.415841584158416,5.207666189693637
8.435643564356436,5.156090493499427
8.455445544554456,5.10483748465785
8.475247524752476,5.0541292025147255
8.495049504950495,5.004192435260365
8.514851485148515,4.9552578076767375
8.534653465346535,4.907558716911741
8.554455445544555,4.861330107477204
8.574257425742575,4.816807079828727
8.594059405940595,4.774223331104182
8.613861386138613,4.733809431916569
8.633663366336634,4.695790949483144
8.653465346534654,4.660386434698059
8.673267326732672,4.627805298775625
8.693069306930694,4.598245613437243
8.712871287128714,4.571891876795052
8.732673267326732,4.548912794505838
8.752475247524753,4.529459131771104
8.772277227722773,4.513661695680884
8.792079207920791,4.5016295086451565
8.811881188118813,4.49344823177947
8.831683168316832,4.4891788918876765
8.85148514851485,4.488856957170734
8.871287128712872,4.492491795347894
8.891089108910892,4.500066534163633
8.91089108910891,4.51153832916359
8.930693069306932,4.52683902820213
8.950495049504951,4.5458762074721655
8.97029702970297,4.568534540923446
8.990099009900991,4.59467745456633
9.00990099009901,4.624149009888064
9.029702970297029,4.656775956678923
9.04950495049505,4.692369894915102
9.06930693069307,4.730729487656953
9.089108910891088,4.7716426716805955
9.10891089108911,4.814888819140444
9.12871287128713,4.860240811293581
9.148514851485148,4.907466993568701
9.16831683168317,4.956332989478007
9.188118811881187,5.006603358607806
9.207920792079207,5.058043090865121
9.227722772277229,5.110418935105993
9.247524752475247,5.163500565139806
9.267326732673267,5.217061589890527
9.287128712871288,5.270880417265026
9.306930693069306,5.324740983137759
9.326732673267326,5.378433357941122
9.346534653465348,5.431754243791735
9.366336633663366,5.484507375020185
9.386138613861386,5.536503834533041
9.405940594059407,5.587562297729955
9.425742574257425,5.637509214819596
9.445544554455445,5.686178941401545
9.465346534653467,5.733413826166398
9.485148514851485,5.7790642635571405
9.504950495049505,5.822988718264567
9.524752475247526,5.865053727518048
9.544554455445544,5.905133886295223
9.564356435643564,5.943111819815644
9.584158415841586,5.978878147007168
9.603960396039604,6.0123314380375446
9.623762376237623,6.043378168484416
9.643564356435645,6.071932672268585
9.663366336633663,6.097917095092336
9.683168316831683,6.1212613497999175
9.702970297029704,6.141903074804809
9.722772277227723,6.159787596500445
9.742574257425742,6.1748678963838755
9.762376237623764,6.187104583466391
9.782178217821782,6.196465872419138
9.801980198019802,6.202927567798615
9.821782178217823,6.206473054612347
9.841584158415841,6.207093295414861
9.861386138613861,6.204786834065266
9.881188118811881,6.199559806224781
9.900990099009901,6.191425956623453
9.92079207920792,6.18040666307624
9.94059405940594,6.166530967174925
9.96039603960396,6.149835611522135
9.98019801980198,6.130365083301436
10.0,6.10817166389064
10.01980198019802,6.0833154841176915
10.03960396039604,6.055864584627309
10.05940594059406,6.025894980664216
10.07920792079208,5.993490730381749
10.099009900990099,5.958744005544106
10.118811881188119,5.921755163202942
10.138613861386139,5.882632816583055
10.158415841584159,5.841493903004625
10.178217821782178,5.79846374618885
10.198019801980198,5.753676109736639
10.217821782178218,5.7072732379268
10.237623762376238,5.659405879247804
10.257425742574258,5.610233287253064
10.277227722772277,5.5599231924139545
10.297029702970297,5.508651737645659
10.316831683168317,5.456603369109785
10.336633663366337,5.403970672778712
10.356435643564357,5.350954146112499
10.376237623762377,5.297761893098011
10.396039603960396,5.2446092298968
10.415841584158416,5.191718187524699
10.435643564356436,5.139316897446242
10.455445544554454,5.087638845832427
10.475247524752476,5.036921982642321
10.495049504950495,4.987407672800356
10.514851485148514,4.939339478709778
10.534653465346535,4.892961766317714
10.554455445544555,4.848518131051108
10.574257425742573,4.806249645251522
10.594059405940595,4.766392935251017
10.613861386138614,4.7291781038552205
10.633663366336632,4.694826522514287
10.653465346534654,4.66354852650987
10.673267326732674,4.635541055569748
10.693069306930692,4.6109852908158
10.712871287128714,4.5900443461418865
10.732673267326733,4.572861077259127
10.752475247524751,4.559556074039386
10.772277227722773,4.550225900869783
10.792079207920793,4.544941645166809
10.81188118811881,4.543747825947768
10.831683168316832,4.546661702723931
10.851485148514852,4.553673010604071
10.87128712871287,4.564744131311629
10.891089108910892,4.579810692955275
