Frequency (Hz),Amplitude
0.0,13.571067856889805
0.01978021978021978,13.567462996231578
0.03956043956043956,13.556656859173849
0.05934065934065934,13.538674791989175
0.07912087912087912,13.513559076892543
0.0989010989010989,13.481368989754596
0.11868131868131868,13.442180881032368
0.13846153846153844,13.396088280020296
0.15824175824175823,13.343202022510814
0.17802197802197803,13.283650401905298
0.1978021978021978,13.21757934372307
0.21758241758241756,13.14515260330581
0.23736263736263735,13.066551986293826
0.2571428571428572,12.981977591142599
0.2769230769230769,12.891648072533867
0.2967032967032967,12.795800923993893
0.31648351648351647,12.694692777336895
0.3362637362637363,12.588599715675334
0.35604395604395606,12.477817595649933
0.3758241758241758,12.362662373194777
0.3956043956043956,12.243470425529997
0.4153846153846154,12.120598860127604
0.4351648351648351,11.99442579908686
0.45494505494505494,11.865350624649095
0.4747252747252747,11.733794168452423
0.4945054945054945,11.600198823558417
0.5142857142857143,11.46502855428471
0.5340659340659341,11.328768774484246
0.5538461538461538,11.19192606020427
0.5736263736263736,11.055027657769058
0.5934065934065934,10.918620743466512
0.6131868131868132,10.78327138647164
0.6329670329670329,10.649563162804842
0.6527472527472528,10.51809536550467
0.6725274725274726,10.389480755415832
0.6923076923076923,10.26434279877563
0.7120879120879121,10.143312342925034
0.7318681318681318,10.027023690787791
0.7516483516483516,9.91611004900036
0.7714285714285715,9.811198344298345
0.7912087912087912,9.712903428203068
0.810989010989011,9.621821720943135
0.8307692307692308,9.538524380982313
0.8505494505494506,9.463550124831906
0.8703296703296702,9.397397860524064
0.8901098901098901,9.340519334004382
0.9098901098901099,9.293312017054623
0.9296703296703297,9.256112484341724
0.9494505494505494,9.229190532347912
0.9692307692307692,9.212744281755597
0.989010989010989,9.20689647630241
1.0087912087912088,9.211692145993602
1.0285714285714287,9.227097743629368
1.0483516483516484,9.253001795393116
1.0681318681318681,9.289217034504086
1.087912087912088,9.335483917893598
1.1076923076923075,9.391475365380789
1.1274725274725275,9.456802513623417
1.1472527472527472,9.531021246223778
1.1670329670329669,9.613639247852708
1.1868131868131868,9.704123333308544
1.2065934065934065,9.801906819711927
1.2263736263736265,9.906396738187416
1.2461538461538462,10.016980716581704
1.2659340659340659,10.13303340326283
1.2857142857142858,10.253922340543806
1.3054945054945055,10.37901323219447
1.3252747252747252,10.507674581064121
1.3450549450549452,10.639281699029508
1.3648351648351649,10.773220111967339
1.3846153846153846,10.908888397401283
1.4043956043956045,11.045700502416894
1.4241758241758242,11.183087595101334
1.443956043956044,11.32049950496073
1.4637362637362636,11.457405807297985
1.4835164835164834,11.59329660413399
1.5032967032967033,11.727683050560621
1.523076923076923,11.860097670945834
1.542857142857143,11.990094504578396
1.5626373626373626,12.117249115447272
1.5824175824175823,12.241158496115268
1.6021978021978023,12.361440891210448
1.621978021978022,12.477735562008531
1.6417582417582417,12.589702509956266
1.6615384615384616,12.697022173799759
1.6813186813186813,12.799395112222518
1.7010989010989013,12.89654168153845
1.720879120879121,12.988201715993014
1.7406593406593405,13.074134216562427
1.7604395604395604,13.154117052767987
1.7802197802197801,13.227946680902525
1.7999999999999998,13.295437881163815
1.8197802197802198,13.356423515472416
1.8395604395604395,13.410754307190953
1.8593406593406594,13.458298643531958
1.879120879120879,13.498942401120708
1.8989010989010988,13.532588794947527
1.9186813186813187,13.559158250785575
1.9384615384615385,13.578588301050145
1.9582417582417584,13.590833504021697
1.978021978021978,13.59586538633789
1.9978021978021978,13.593672408668434
2.0175824175824175,13.584259954515256
2.0373626373626372,13.567650342119181
2.0571428571428574,13.543882859498288
2.076923076923077,13.513013822684036
2.096703296703297,13.475116657253144
2.1164835164835165,13.430282003268525
2.1362637362637362,13.378617843733013
2.1560439560439564,13.32024965661738
2.175824175824176,13.255320590437227
2.195604395604396,13.18399166321234
2.215384615384615,13.10644198443081
2.2351648351648348,13.022868999344741
2.254945054945055,12.933488754525023
2.2747252747252746,12.838536183077517
2.2945054945054943,12.738265407248665
2.314285714285714,12.632950055295236
2.3340659340659338,12.522883588430025
2.353846153846154,12.408379632347524
2.3736263736263736,12.289772306243796
2.3934065934065933,12.167416540333564
2.413186813186813,12.041688370596328
2.4329670329670328,11.912985196816933
2.452747252747253,11.781725986894635
2.4725274725274726,11.648351406862512
2.4923076923076923,11.513323852089485
2.512087912087912,11.377127350760762
2.5318681318681318,11.240267306023792
2.5516483516483515,11.10327003826961
2.5714285714285716,10.966682084091664
2.5912087912087913,10.831069203806223
2.610989010989011,10.697015045412105
2.6307692307692307,10.56511941000734
2.6505494505494505,10.435996062576583
2.6703296703296706,10.310270033431829
2.6901098901098903,10.18857436022882
2.70989010989011,10.071546229215397
2.7296703296703297,9.959822487968266
2.7494505494505495,9.854034520942163
2.769230769230769,9.75480250398133
2.7890109890109893,9.662729084344459
2.808791208791209,9.578392567953703
2.8285714285714287,9.502339733920495
2.8483516483516484,9.435078435535008
2.8681318681318677,9.377070183688646
2.887912087912088,9.328722939433879
2.9076923076923076,9.290384363192263
2.9274725274725273,9.26233577542101
2.947252747252747,9.244787074644867
2.9670329670329667,9.237872832374613
2.986813186813187,9.241649741116511
3.0065934065934066,9.256095533958069
3.0263736263736263,9.281109426439025
3.046153846153846,9.31651405925693
3.0659340659340657,9.362058850079965
3.085714285714286,9.417424600355583
3.1054945054945056,9.482229153463752
3.1252747252747253,9.556033867163654
3.145054945054945,9.638350647364652
3.1648351648351647,9.72864929123718
3.184615384615385,9.826364903381014
3.2043956043956046,9.930905175897397
3.2241758241758243,10.041657357948358
3.243956043956044,10.15799477891341
3.2637362637362637,10.279282828176528
3.2835164835164834,10.404884331191482
3.3032967032967036,10.534164293880215
3.3230769230769233,10.666494014509508
3.342857142857143,10.801254583544372
3.3626373626373627,10.937839807712098
3.3824175824175824,11.075658605121767
3.4021978021978025,11.214136924486006
3.4219780219780223,11.352719244097822
3.441758241758242,11.490869706038225
3.4615384615384617,11.628072938882982
3.481318681318681,11.763834618591334
3.501098901098901,11.897681812837241
3.520879120879121,12.029163149208065
3.5406593406593405,12.15784884276785
3.5604395604395602,12.28333061368899
3.58021978021978,12.405221521151367
3.5999999999999996,12.523155735581609
3.61978021978022,12.636788267607143
3.6395604395604395,12.745794668840746
3.659340659340659,12.849870716784537
3.679120879120879,12.948732093721585
3.6989010989010986,13.042114067416632
3.718681318681319,13.129771179736219
3.7384615384615385,13.211476947884746
3.758241758241758,13.287023581797268
3.7780219780219784,13.356221720298448
3.7978021978021976,13.418900187894433
3.8175824175824173,13.474905773483894
3.8373626373626375,13.524103031827682
3.8571428571428568,13.566374108282126
3.876923076923077,13.601618587058562
3.896703296703296,13.629753363104816
3.916483516483517,13.650712537597505
3.936263736263736,13.664447336976323
3.956043956043956,13.670926055430309
3.9758241758241755,13.67013402075371
3.9956043956043956,13.662073583516092
4.015384615384615,13.64676412953082
4.035164835164835,13.624242115650974
4.054945054945055,13.594561128964719
4.0747252747252745,13.557791969497293
4.094505494505494,13.514022756545723
4.114285714285715,13.46335905876827
4.134065934065934,13.405924048113674
4.153846153846154,13.341858677596356
4.173626373626373,13.271321882790504
4.193406593406594,13.194490806715143
4.213186813186813,13.111561047498089
4.232967032967033,13.022746927820624
4.252747252747253,12.928281784634846
4.2725274725274724,12.828418276988632
4.292307692307692,12.723428708958876
4.312087912087913,12.613605363652482
4.331868131868132,12.499260842950216
4.351648351648352,12.380728406103353
4.371428571428571,12.258362298408388
4.391208791208792,12.132538058939865
4.410989010989011,12.003652793679642
4.43076923076923,11.87212539731105
4.450549450549451,11.738396703429311
4.4703296703296695,11.602929538954713
4.49010989010989,11.466208654148806
4.50989010989011,11.328740494893335
4.52967032967033,11.191052778914528
4.549450549450549,11.053693832610108
4.569230769230769,10.917231640333188
4.589010989010989,10.782252553779907
4.608791208791209,10.649359605999397
4.628571428571428,10.519170373100875
4.648351648351649,10.392314327686057
4.6681318681318675,10.269429632189556
4.687912087912088,10.151159328504582
4.707692307692308,10.038146893305639
4.7274725274725276,9.931031147001603
4.747252747252747,9.830440528613337
4.767032967032967,9.736986778964093
4.786813186813187,9.651258109669522
4.806593406593407,9.573811974028162
4.826373626373626,9.5051675957276
4.846153846153847,9.445798449194477
4.8659340659340655,9.39612491772717
4.885714285714286,9.356507378306963
4.905494505494506,9.327239971469748
4.9252747252747255,9.308545307935766
4.945054945054945,9.300570339315009
4.964835164835165,9.303383578427201
4.984615384615385,9.316973797903845
5.004395604395604,9.341250267976978
5.024175824175824,9.376044521336045
5.043956043956045,9.421113560996845
5.0637362637362635,9.476144362467853
5.083516483516483,9.54075946933327
5.103296703296703,9.614523445287007
5.123076923076923,9.696949927266013
5.142857142857143,9.787509023287626
5.162637362637362,9.885634812846215
5.182417582417583,9.990732734032747
5.2021978021978015,10.102186676055647
5.221978021978022,10.21936563465731
5.241758241758242,10.341629827516872
5.2615384615384615,10.468336204265995
5.281318681318681,10.598843319191245
5.301098901098901,10.732515562837463
5.320879120879121,10.86872677106037
5.340659340659341,11.006863246670092
5.36043956043956,11.14632624012695
5.380219780219781,11.286533942505459
5.3999999999999995,11.426923046952384
5.41978021978022,11.566949934960217
5.43956043956044,11.706091541731798
5.4593406593406595,11.843845951401251
5.479120879120879,11.979732768461435
5.498901098901099,12.113293306874288
5.518681318681319,12.244090633341425
5.538461538461538,12.371709496330975
5.558241758241758,12.49575616785318
5.578021978021979,12.615858220752255
5.5978021978021975,12.731664260486916
5.617582417582418,12.8428436270235
5.637362637362637,12.949086079556313
5.6571428571428575,13.050101474276511
5.676923076923077,13.145619443299879
5.696703296703297,13.235389081097754
5.716483516483517,13.319178643314219
5.736263736263735,13.396775261658206
5.756043956043956,13.467984677593993
5.775824175824176,13.532630996784837
5.795604395604395,13.59055646564127
5.815384615384615,13.641621270861547
5.835164835164835,13.685703362503347
5.854945054945055,13.722698300872407
5.874725274725275,13.752519127338918
5.894505494505494,13.775096259079575
5.914285714285715,13.790377407681426
5.934065934065933,13.798327521520052
5.953846153846154,13.79892875183102
5.973626373626374,13.792180442420687
5.993406593406593,13.778099143003084
6.013186813186813,13.756718646196434
6.032967032967033,13.728090048259025
6.052747252747253,13.692281833682792
6.072527472527473,13.649379983787014
6.092307692307692,13.599488109455427
6.112087912087913,13.54272760813024
6.131868131868131,13.479237845104349
6.151648351648352,13.409176359028912
6.171428571428572,13.332719091361774
6.191208791208791,13.250060639208877
6.210989010989011,13.161414530636605
6.230769230769231,13.06701352103646
6.2505494505494505,12.967109908480404
6.270329670329671,12.861975865186912
6.29010989010989,12.751903781192228
6.309890109890111,12.637206615054179
6.329670329670329,12.51821824486708
6.349450549450549,12.395293810997247
6.36923076923077,12.268810039716335
6.3890109890109885,12.13916553427746
6.408791208791209,12.006781016911262
6.428571428571428,11.872099501695338
6.4483516483516485,11.73558637426421
6.468131868131868,11.597729349902018
6.487912087912088,11.459038276755122
6.507692307692308,11.320044745829835
6.527472527472527,11.181301464280178
6.547252747252747,11.043381343506791
6.567032967032967,10.906876249143936
6.5868131868131865,10.772395356588449
6.606593406593407,10.640563053920623
6.626373626373626,10.512016334603
6.6461538461538465,10.387401626029206
6.665934065934065,10.267371007695434
6.685714285714286,10.152577785314566
6.705494505494506,10.043671405285357
6.725274725274725,9.941291717983647
6.745054945054945,9.846062628329827
6.764835164835165,9.758585207360886
6.7846153846153845,9.679430377684621
6.804395604395605,9.609131326460608
6.824175824175824,9.54817583885545
6.8439560439560445,9.49699877902703
6.863736263736263,9.455974970551022
6.883516483516484,9.425412739933481
6.903296703296704,9.405548382329412
6.923076923076923,9.39654178602956
6.942857142857143,9.398473411731077
6.962637362637362,9.411342766176896
6.9824175824175825,9.435068441519078
7.002197802197802,9.469489717368397
7.021978021978022,9.51436964840575
7.041758241758242,9.56939949307418
7.061538461538461,9.634204283754993
7.081318681318681,9.708349299861109
7.101098901098901,9.79134718436013
7.1208791208791204,9.882665441222239
7.140659340659341,9.981734064248695
7.16043956043956,10.087953073459364
7.1802197802197805,10.200699769792369
7.199999999999999,10.319335558269046
7.21978021978022,10.443212230332225
7.23956043956044,10.571677634778009
7.259340659340659,10.704080701401207
7.279120879120879,10.839775810831188
7.298901098901099,10.978126527468484
7.318681318681318,11.118508729958776
7.338461538461539,11.260313185708346
7.358241758241758,11.402947623260527
7.3780219780219785,11.545838359754274
7.397802197802197,11.688431541025043
7.417582417582418,11.830194049987423
7.437362637362638,11.970614135460126
7.457142857142857,12.109201809144032
7.476923076923077,12.245489053508262
7.496703296703297,12.379029878231528
7.516483516483516,12.509400257839486
7.536263736263736,12.636197978447184
7.556043956043957,12.759042417164341
7.575824175824176,12.877574273807276
7.595604395604395,12.991455271104009
7.615384615384615,13.100367836572978
7.635164835164835,13.204014776676928
7.654945054945055,13.302118951669254
7.674725274725275,13.394422957721371
7.694505494505494,13.480688821406087
7.7142857142857135,13.560697710373592
7.734065934065935,13.634249663056005
7.753846153846154,13.701163339438574
7.7736263736263735,13.76127579430904
7.793406593406592,13.814442273914793
7.813186813186814,13.860536036594462
7.832967032967034,13.899448197687109
7.852747252747252,13.931087598838877
7.872527472527472,13.955380701709773
7.892307692307693,13.972271506017082
7.912087912087912,13.981721491827779
7.931868131868132,13.983709586017861
7.951648351648351,13.978232152845168
7.971428571428572,13.96530300862489
7.991208791208791,13.94495346054685
8.010989010989011,13.917232369723939
8.03076923076923,13.882206238604327
8.05054945054945,13.839959322909579
8.07032967032967,13.79059376826825
8.09010989010989,13.734229771691197
8.10989010989011,13.671005767971035
8.129670329670331,13.601078640971837
8.149450549450549,13.524623959593141
8.169230769230769,13.441836237928646
8.189010989010988,13.352929218776225
8.20879120879121,13.258136179170359
8.22857142857143,13.157710255976106
8.248351648351647,13.051924788776578
8.268131868131867,12.941073676271026
8.287912087912087,12.82547174114262
8.307692307692308,12.705455096813566
8.327472527472528,12.581381507639714
8.347252747252746,12.453630731863482
8.367032967032966,12.32260483400266
8.386813186813187,12.188728450266371
8.406593406593407,12.05244898703347
8.426373626373627,11.914236728392401
8.446153846153845,11.774584824243815
8.465934065934066,11.634009125561255
8.485714285714286,11.493047828197051
8.505494505494505,11.352260881283607
8.525274725274725,11.212229111071453
8.545054945054945,11.073553006325652
8.564835164835165,10.936851107647646
8.584615384615384,10.802757940904304
8.604395604395604,10.671921435055788
8.624175824175826,10.544999767910305
8.643956043956043,10.422657590587178
8.663736263736263,10.3055615936174
8.683516483516483,10.19437539540611
8.703296703296704,10.08975375771073
8.723076923076924,9.992336162900271
8.742857142857142,9.902739823487105
8.762637362637362,9.821552234416098
8.782417582417583,9.749323420639175
8.802197802197803,9.686558073508069
8.821978021978023,9.633707805686607
8.84175824175824,9.591163781432801
8.86153846153846,9.559249993148228
8.881318681318682,9.538217452664382
8.901098901098901,9.528239544783084
8.920879120879121,9.52940875090778
8.940659340659339,9.541734894119545
8.96043956043956,9.565144987777375
8.98021978021978,9.59948469334759
9.0,9.644521316344612
9.01978021978022,9.699948198705574
9.03956043956044,9.765390307477373
9.05934065934066,9.840410777615185
9.079120879120879,9.924518143172174
9.098901098901099,10.01717398625856
9.11868131868132,10.117800745030616
9.138461538461538,10.225789447408447
9.158241758241758,10.34050717220506
9.178021978021977,10.461304079694727
9.197802197802199,10.587519895503748
9.217582417582419,10.718489771894793
9.237362637362637,10.853549486714698
9.257142857142856,10.992039971034362
9.276923076923078,11.133311181169963
9.296703296703297,11.276725349310611
9.316483516483517,11.421659659825
9.336263736263735,11.567508406196113
9.356043956043957,11.713684687299898
9.375824175824176,11.859621702286768
9.395604395604396,12.004773701477662
9.415384615384616,12.148616647185923
9.435164835164835,12.290648633837252
9.454945054945055,12.430390111672176
9.474725274725275,12.567383953051488
9.494505494505495,12.701195395213674
9.514285714285714,12.831411888437124
9.534065934065934,12.95764287405269
9.553846153846154,13.079519512694342
9.573626373626373,13.19669437958963
9.593406593406593,13.308841140572062
9.613186813186815,13.415654219820587
9.632967032967032,13.516848468063941
9.652747252747252,13.612158838088659
9.672527472527472,13.701340072817935
9.692307692307693,13.784166409942731
9.712087912087913,13.860431306047401
9.731868131868131,13.929947182343332
9.75164835164835,13.99254519347419
9.771428571428572,14.048075020355164
9.791208791208792,14.096404687632303
9.810989010989012,14.13742040607434
9.83076923076923,14.17102644001926
9.850549450549451,14.197144999876267
9.87032967032967,14.215716159615889
9.89010989010989,14.226697799156065
9.90989010989011,14.230065571559104
9.92967032967033,14.22581289498531
9.94945054945055,14.213950969395166
9.96923076923077,14.194508818046373
9.989010989010989,14.167533353887174
10.008791208791209,14.13308947099703
10.028571428571428,14.091260161261298
10.048351648351648,14.042146656481309
10.068131868131868,13.985868596105806
10.08791208791209,13.922564220713467
10.107692307692307,13.852390591269275
10.127472527472527,13.775523834003248
10.147252747252747,13.692159410506326
10.167032967032966,13.602512412282596
10.186813186813188,13.5068178785203
10.206593406593406,13.405331135219555
10.226373626373626,13.298328153014
10.246153846153845,13.186105920012478
10.265934065934067,13.068982824729893
10.285714285714286,12.9472990426313
10.305494505494504,12.821416917937638
10.325274725274724,12.691721330090154
10.345054945054946,12.5586200315998
10.364835164835165,12.422543940878096
10.384615384615385,12.283947370027786
10.404395604395603,12.143308163451085
10.424175824175824,12.001127718523083
10.443956043956044,11.857930854525518
10.463736263736264,11.71426549064391
10.483516483516484,11.570702088264104
10.503296703296703,11.42783280731878
10.523076923076923,11.286270321387049
10.542857142857143,11.146646232121606
10.562637362637362,11.009609020977962
10.582417582417584,10.875821475893305
10.602197802197802,10.745957533363956
10.621978021978022,10.620698483231198
10.641758241758241,10.500728495333256
10.661538461538463,10.386729444835883
10.681318681318682,10.279375037075667
