Frequency (Hz),Amplitude
0.0,0.5242318312454701
0.019867549668874173,0.5244771677740362
0.039735099337748346,0.5252114871559921
0.059602649006622516,0.5264297464262835
0.07947019867549669,0.5281236316927165
0.09933774834437085,0.5302816909252892
0.11920529801324503,0.5328895125756175
0.13907284768211922,0.5359299433712071
0.15894039735099338,0.5393833375477082
0.17880794701986755,0.5432278291921017
0.1986754966887417,0.5474396192621989
0.2185430463576159,0.5519932691777394
0.23841059602649006,0.5568619935689473
0.2582781456953642,0.5620179457229835
0.27814569536423844,0.5674324903886162
0.2980132450331126,0.5730764597873117
0.31788079470198677,0.5789203898545069
0.33774834437086093,0.5849347348309251
0.3576158940397351,0.5910900592975571
0.3774834437086093,0.5973572075708499
0.3973509933774834,0.6037074510373165
0.4172185430463576,0.6101126145110133
0.4370860927152318,0.6165451830555038
0.45695364238410596,0.6229783909406352
0.4768211920529801,0.6293862945252372
0.49668874172185434,0.6357438308900538
0.5165562913907285,0.6420268640117238
0.5364238410596026,0.6482122201861605
0.5562913907284769,0.6542777142941351
0.5761589403973509,0.6602021683668049
0.5960264900662252,0.6659654237630784
0.6158940397350993,0.6715483481239684
0.6357615894039735,0.6769328381253091
0.6556291390728477,0.6821018189145496
0.6754966887417219,0.6870392409917403
0.695364238410596,0.6917300751808462
0.7152317880794702,0.6961603062356414
0.7350993377483444,0.7003169255346087
0.7549668874172186,0.7041879232410148
0.7748344370860927,0.7077622802370394
0.7947019867549668,0.7110299600832086
0.8145695364238411,0.7139819012056033
0.8344370860927152,0.7166100094732639
0.8543046357615894,0.7189071512933386
0.8741721854304636,0.720867147325159
0.8940397350993378,0.7224847668899547
0.9139072847682119,0.7237557231366953
0.9337748344370861,0.7246766690073763
0.9536423841059603,0.7252451940354653
0.9735099337748344,0.7254598219997652
0.9933774834437087,0.7253200094494483
1.0132450331125828,0.7248261451085589
1.033112582781457,0.7239795501629899
1.0529801324503312,0.7227824794269211
1.0728476821192052,0.7212381233802643
1.0927152317880795,0.7193506110619158
1.1125827814569538,0.7171250137964945
1.1324503311258278,0.7145673497222633
1.1523178807947019,0.7116845890775427
1.1721854304635762,0.7084846601876175
1.1920529801324504,0.7049764560773185
1.2119205298013245,0.7011698416123038
1.2317880794701985,0.6970756610452643
1.2516556291390728,0.6927057458109279
1.271523178807947,0.6880729223743723
1.2913907284768211,0.6831910198904093
1.3112582781456954,0.6780748773759905
1.3311258278145695,0.6727403500327747
1.3509933774834437,0.667204314280983
1.370860927152318,0.6614846709786015
1.390728476821192,0.6556003462013895
1.410596026490066,0.6495712888479934
1.4304635761589404,0.6434184642120853
1.4503311258278146,0.63716384253095
1.4701986754966887,0.6308303813791246
1.4900662251655628,0.624442000630191
1.5099337748344372,0.6180235485667539
1.5298013245033113,0.6116007575815401
1.5496688741721854,0.6052001877959399
1.5695364238410596,0.598849156834729
1.5894039735099337,0.5925756539540852
1.609271523178808,0.5864082367411393
1.6291390728476822,0.5803759087081042
1.6490066225165563,0.5745079763110752
1.6688741721854303,0.5688338842558249
1.6887417218543048,0.5633830284262467
1.7086092715231789,0.558184546399704
1.728476821192053,0.5532670863001454
1.7483443708609272,0.5486585556781072
1.7682119205298013,0.5443858531716099
1.7880794701986755,0.5404745868535946
1.8079470198675496,0.536948784348358
1.8278145695364238,0.5338306009240887
1.847682119205298,0.5311400327473902
1.8675496688741722,0.5288946432222035
1.8874172185430464,0.5271093107310901
1.9072847682119205,0.5257960060747847
1.9271523178807946,0.5249636074108717
1.9470198675496688,0.5246177595128727
1.9668874172185429,0.5247607827364218
1.9867549668874174,0.525391635268213
2.0066225165562916,0.5265059301638789
2.0264900662251657,0.528096006500658
2.0463576158940397,0.5301510518398739
2.066225165562914,0.5326572712678355
2.086092715231788,0.5355980966924365
2.1059602649006623,0.5389544289118643
2.1258278145695364,0.5427049042893375
2.1456953642384105,0.546826177668478
2.165562913907285,0.5512932134068372
2.185430463576159,0.5560795770217732
2.205298013245033,0.5611577208405739
2.2251655629139075,0.5664992581275066
2.2450331125827816,0.572075221327544
2.2649006622516556,0.5778563012371171
2.2847682119205297,0.5838130650167953
2.3046357615894038,0.5899161519521056
2.324503311258278,0.5961364467155974
2.3443708609271523,0.6024452305733732
2.364238410596027,0.608814311511264
2.384105960264901,0.6152161346405312
2.403973509933775,0.6216238744960606
2.423841059602649,0.6280115109815477
2.443708609271523,0.634353890766749
2.463576158940397,0.6406267759223851
2.4834437086092715,0.6468068815061011
2.5033112582781456,0.6528719037055155
2.52317880794702,0.658800540013899
2.543046357615894,0.6645725027719577
2.562913907284768,0.6701685272636296
2.5827814569536423,0.67557037541062
2.6026490066225163,0.6807608359740994
2.622516556291391,0.685723722045422
2.642384105960265,0.6904438664918476
2.662251655629139,0.694907115920103
2.6821192052980134,0.6991003236283739
2.7019867549668874,0.7030113419376706
2.7218543046357615,0.7066290142240275
2.741721854304636,0.7099431669136855
2.76158940397351,0.7129446016534954
2.781456953642384,0.7156250878263125
2.801324503311258,0.7179773555461338
2.821192052980132,0.7199950892389343
2.8410596026490067,0.7216729218910581
2.8609271523178808,0.7230064300281765
2.8807947019867552,0.7239921294717192
2.9006622516556293,0.7246274719076355
2.9205298013245033,0.7249108422916741
2.9403973509933774,0.724841557107355
2.9602649006622515,0.724419863485677
2.9801324503311255,0.7236469391892991
3.0,0.7225248934582662
3.0198675496688745,0.7210567687081887
3.0397350993377485,0.719246543065383
3.0596026490066226,0.7170991337155989
3.0794701986754967,0.7146204010342962
3.0993377483443707,0.7118171534545754
3.119205298013245,0.7086971530152514
3.1390728476821192,0.7052691215144433
3.1589403973509933,0.701542747172369
3.1788079470198674,0.6975286916815746
3.198675496688742,0.6932385974908839
3.218543046357616,0.6886850951316165
3.23841059602649,0.6838818103490922
3.2582781456953644,0.6788433707490048
3.2781456953642385,0.6735854116051163
3.2980132450331126,0.6681245804019026
3.3178807947019866,0.662478539601814
3.3377483443708607,0.6566659670317035
3.3576158940397347,0.6507065531761117
3.3774834437086096,0.644620994547703
3.3973509933774837,0.6384309821771883
3.4172185430463577,0.6321591841300577
3.437086092715232,0.6258292208175172
3.456953642384106,0.6194656317306911
3.47682119205298,0.6130938320954752
3.4966887417218544,0.6067400578321861
3.5165562913907285,0.6004312971177709
3.5364238410596025,0.5941952068068984
3.556291390728477,0.5880600119843333
3.576158940397351,0.5820543870170249
3.596026490066225,0.5762073166671507
3.615894039735099,0.5705479361386196
3.6357615894039736,0.5651053493753092
3.6556291390728477,0.5599084255227471
3.6754966887417218,0.5549855742107759
3.695364238410596,0.5503645012062415
3.7152317880794703,0.5460719470013526
3.7350993377483444,0.5421334120073015
3.754966887417219,0.5385728731579569
3.774834437086093,0.5354124978221733
3.794701986754967,0.5326723618883691
3.814569536423841,0.5303701796279621
3.834437086092715,0.5285210533719678
3.854304635761589,0.5271372510698645
3.8741721854304636,0.5262280193864717
3.8940397350993377,0.5257994391129671
3.9139072847682117,0.5258543283452559
3.9337748344370858,0.5263921971850771
3.9536423841059607,0.5274092557530776
3.9735099337748347,0.5288984752075545
3.993377483443709,0.5308496993883787
4.013245033112583,0.5332498028038241
4.033112582781457,0.5360828890783493
4.052980132450331,0.5393305227787143
4.072847682119205,0.5429719867902889
4.0927152317880795,0.546984557134357
4.112582781456953,0.5513437872728021
4.132450331125828,0.5560237944743689
4.152317880794702,0.5609975416343908
4.172185430463576,0.566237108952474
4.19205298013245,0.5717139509879441
4.211920529801325,0.5773991357471404
4.231788079470199,0.5832635635413954
4.251655629139073,0.5892781643393696
4.271523178807947,0.5954140731893237
4.291390728476821,0.6016427839893362
4.311258278145695,0.6079362824344018
4.33112582781457,0.6142671593746771
4.3509933774834435,0.6206087060946773
4.370860927152318,0.6269349931860241
4.390728476821192,0.6332209347570208
4.410596026490066,0.6394423397199429
4.43046357615894,0.6455759518403746
4.450331125827815,0.651599480137186
4.470198675496689,0.6574916211017794
4.490066225165563,0.6632320740701912
4.509933774834438,0.6688015509421482
4.529801324503311,0.674181781301492
4.549668874172186,0.6793555138590881
4.569536423841059,0.6843065150137627
4.589403973509934,0.6890195652121478
4.6092715231788075,0.6934804536844151
4.629139072847682,0.6976759720411033
4.649006622516556,0.7015939071347369
4.66887417218543,0.7052230335204986
4.688741721854305,0.7085531057890518
4.708609271523179,0.711574850993968
4.728476821192054,0.7142799613520994
4.748344370860927,0.7166610873599455
4.768211920529802,0.7187118314378629
4.788079470198675,0.720426742190204
4.80794701986755,0.7218013093485589
4.827814569536423,0.7228319594489235
4.847682119205298,0.7235160522802954
4.867549668874172,0.7238518781311367
4.887417218543046,0.7238386558510667
4.9072847682119205,0.7234765317376043
4.927152317880794,0.7227665792507152
4.947019867549669,0.7217107995518962
4.966887417218543,0.7203121228576574
4.986754966887418,0.7185744105904963
5.006622516556291,0.7165024583026431
5.026490066225166,0.7141019993379877
5.04635761589404,0.7113797091864437
5.066225165562914,0.7083432104708978
5.086092715231788,0.7050010784895526
5.105960264900662,0.7013628472156543
5.125827814569536,0.6974390156304857
5.14569536423841,0.6932410542352393
5.1655629139072845,0.6887814115495143
5.185430463576159,0.6840735203606466
5.205298013245033,0.6791318034355701
5.225165562913908,0.6739716783463967
5.245033112582782,0.6686095609904394
5.264900662251656,0.6630628673048005
5.28476821192053,0.657350012584696
5.304635761589404,0.6514904077126568
5.324503311258278,0.6455044514942215
5.344370860927152,0.6394135181744607
5.364238410596027,0.63323993908253
5.3841059602649,0.6270069772199723
5.403973509933775,0.620738793479349
5.4238410596026485,0.6144604030581522
5.443708609271523,0.6081976205286186
5.463576158940397,0.6019769919474712
5.483443708609272,0.5958257123544553
5.503311258278146,0.5897715270300877
5.52317880794702,0.5838426149789246
5.543046357615895,0.5780674532930274
5.562913907284768,0.5724746613490291
5.582781456953643,0.5670928242177775
5.602649006622516,0.5619502952280275
5.622516556291391,0.5570749783307122
5.642384105960264,0.552494091750423
5.662251655629139,0.5482339153667859
5.682119205298013,0.5443195253057777
5.701986754966887,0.5407745202876106
5.7218543046357615,0.5376207453060746
5.741721854304636,0.5348780191253876
5.7615894039735105,0.5325638727859138
5.781456953642384,0.5306933067261106
5.801324503311259,0.5292785741799299
5.821192052980132,0.5283289981457567
5.841059602649007,0.5278508284250077
5.860927152317881,0.5278471440148451
5.880794701986755,0.5283178045693796
5.900662251655629,0.5292594528141599
5.920529801324503,0.5306655678342164
5.940397350993377,0.5325265671969948
5.960264900662251,0.5348299540572798
5.980132450331126,0.5375605038450242
6.0,0.540700483953349
6.0198675496688745,0.544229899078922
6.039735099337749,0.5481267545369378
6.059602649006623,0.5523673299552795
6.079470198675497,0.5569264561940643
6.099337748344371,0.5617777890628836
6.119205298013245,0.5668940743318069
6.139072847682119,0.5722473995685786
6.158940397350993,0.5778094294023249
6.178807947019867,0.5835516218486081
6.198675496688741,0.5894454242804563
6.218543046357616,0.5954624484615821
6.23841059602649,0.6015746247530261
6.258278145695365,0.6077543361572088
6.2781456953642385,0.6139745332789839
6.298013245033113,0.6202088315733354
6.317880794701987,0.6264315924295809
6.337748344370861,0.6326179897318066
6.357615894039735,0.6387440635508934
6.377483443708609,0.6447867625847143
6.397350993377484,0.6507239768828808
6.417218543046357,0.6565345622863497
6.437086092715232,0.6621983578886317
6.456953642384105,0.6676961976956541
6.47682119205298,0.6730099175293559
6.496688741721854,0.6781223580926424
6.516556291390729,0.6830173649925225
6.5364238410596025,0.6876797864069139
6.556291390728477,0.6920954689787585
6.5761589403973515,0.6962512524310307
6.596026490066225,0.7001349633153895
6.6158940397351,0.7037354082382242
6.635761589403973,0.7070423668462306
6.655629139072848,0.7100465848031637
6.675496688741721,0.7127397669443944
6.695364238410596,0.7151145707597251
6.715231788079469,0.7171646003235663
6.735099337748344,0.7188844007661856
6.754966887417219,0.7202694533583482
6.774834437086093,0.7213161712646404
6.794701986754967,0.7220218960058554
6.814569536423841,0.7223848946597519
6.8344370860927155,0.722404357818723
6.854304635761589,0.7220803983153081
6.874172185430464,0.721414050717921
6.894039735099337,0.7204072715927498
6.913907284768212,0.7190629405201259
6.933774834437086,0.7173848618460809
6.95364238410596,0.7153777671409896
6.973509933774834,0.7130473183274038
6.993377483443709,0.7104001114266909
7.013245033112583,0.7074436808597802
7.033112582781457,0.7041865042195802
7.052980132450331,0.7006380074113769
7.072847682119205,0.6968085700313347
7.0927152317880795,0.6927095308231291
7.112582781456954,0.688353193015089
7.132450331125828,0.6837528292975583
7.152317880794702,0.6789226861488739
7.172185430463576,0.6738779871597412
7.19205298013245,0.6686349349375187
7.211920529801324,0.6632107110951563
7.231788079470198,0.6576234737424772
7.251655629139073,0.651892351801471
7.271523178807947,0.6460374353622621
7.291390728476822,0.6400797611839245
7.311258278145695,0.6340412923268037
7.33112582781457,0.6279448907837961
7.3509933774834435,0.6218142818613738
7.370860927152318,0.6156740089553673
7.390728476821192,0.6095493772770192
7.410596026490066,0.603466385025059
7.430463576158941,0.5974516404801963
7.450331125827814,0.591532263533827
7.470198675496689,0.5857357702695357
7.490066225165562,0.5800899394100821
7.509933774834438,0.5746226597385401
7.52980132450331,0.5693617580164536
7.549668874172186,0.564334807459808
7.569536423841059,0.5595689174996514
7.589403973509934,0.5550905063408277
7.6092715231788075,0.550925058718638
7.629139072847682,0.5470968722071559
7.649006622516557,0.5436287964063168
7.66887417218543,0.5405419702657961
7.6887417218543055,0.537855563619726
7.708609271523178,0.5355865296313554
7.728476821192054,0.5337493752025699
7.748344370860927,0.5323559564286234
7.768211920529802,0.5314153058264361
7.788079470198675,0.5309334973208851
7.80794701986755,0.5309135538562094
7.827814569536423,0.5313554010601489
7.847682119205298,0.5322558687180585
7.8675496688741715,0.5336087400180874
7.887417218543046,0.5354048467375705
7.907284768211921,0.5376322068742275
7.927152317880795,0.5402761997979678
7.9470198675496695,0.543319772894028
7.966887417218543,0.5467436729380165
7.986754966887418,0.5505266951066298
8.006622516556291,0.5546459425664034
8.026490066225167,0.5590770899513077
8.046357615894038,0.5637946446748979
8.066225165562914,0.5687722008459613
8.086092715231787,0.573982681492864
8.105960264900663,0.5793985657771684
8.125827814569536,0.5849920988315994
8.14569536423841,0.5907354827426866
8.165562913907285,0.5966010479823833
8.185430463576159,0.6025614052552316
8.205298013245034,0.6085895782630214
8.225165562913906,0.6146591182977741
8.245033112582782,0.62074420186721
8.264900662251655,0.6268197127468489
8.28476821192053,0.6328613099567955
8.304635761589404,0.6388454831937557
8.324503311258278,0.6447495972275564
8.344370860927151,0.6505519267090174
8.364238410596027,0.656231682745965
8.3841059602649,0.6617690324964776
8.403973509933774,0.6671451129109743
8.42384105960265,0.6723420396352405
8.443708609271523,0.6773429119680282
8.463576158940398,0.6821318146540953
8.483443708609272,0.6866938171885324
8.503311258278146,0.6910149712115639
8.52317880794702,0.6950823064862751
8.543046357615895,0.6988838258742177
8.562913907284768,0.7024084996563184
8.582781456953642,0.7056462594865156
8.602649006622515,0.708587992215663
8.62251655629139,0.7112255337784908
8.642384105960264,0.7135516633004305
8.66225165562914,0.7155600975491674
8.682119205298013,0.717245485830058
8.701986754966887,0.7186034054027319
8.721854304635762,0.7196303574778874
8.741721854304636,0.7203237638382445
8.76158940397351,0.7206819641148676
8.781456953642383,0.7207042137392283
8.801324503311259,0.7203906825818753
8.821192052980132,0.71974245427978
8.841059602649008,0.7187615262466548
8.86092715231788,0.7174508103515995
8.880794701986755,0.7158141342433765
8.90066225165563,0.7138562432871829
8.920529801324504,0.7115828030703399
8.940397350993377,0.709000402419474
8.960264900662251,0.7061165568569922
8.980132450331126,0.7029397124053212
9.0,0.699479249625996
9.019867549668875,0.6957454877537091
9.039735099337747,0.6917496887546126
9.059602649006623,0.6875040611010838
9.079470198675496,0.6830217630124967
9.099337748344372,0.6783169048611999
9.119205298013245,0.67340455038604
9.139072847682119,0.6683007162901632
9.158940397350994,0.6630223697263093
9.178807947019868,0.6575874230911916
9.198675496688743,0.6520147254608991
9.218543046357615,0.6463240499024445
9.23841059602649,0.6405360757950754
9.258278145695364,0.6346723651898372
9.27814569536424,0.6287553321322471
9.298013245033111,0.62280820377414
9.317880794701987,0.6168549720150688
9.33774834437086,0.6109203343468536
9.357615894039736,0.6050296225389057
9.37748344370861,0.5992087178065436
9.397350993377483,0.5934839511641253
9.417218543046358,0.5878819877909649
9.437086092715232,0.5824296944474635
9.456953642384107,0.5771539892815417
9.47682119205298,0.5720816737740853
9.496688741721854,0.5672392470896579
9.516556291390728,0.5626527037275689
9.536423841059603,0.55834731609486
9.556291390728477,0.5543474044302544
9.57615894039735,0.5506760973611866
9.596026490066224,0.5473550872313889
9.6158940397351,0.5444043851392014
9.635761589403973,0.5418420813116901
9.655629139072847,0.5396841169414797
9.675496688741722,0.5379440738695174
9.695364238410596,0.5366329884533136
9.715231788079471,0.5357591955863514
9.735099337748345,0.5353282081183781
9.754966887417218,0.5353426358916739
9.774834437086092,0.535802147303213
9.794701986754967,0.536703474805344
9.814569536423841,0.5380404641650989
9.834437086092716,0.5398041657208147
9.854304635761588,0.5419829644114033
9.874172185430464,0.5445627441012999
9.894039735099337,0.547527080754489
9.913907284768213,0.550857458369421
9.933774834437086,0.5545335012854559
9.95364238410596,0.5585332164983853
9.973509933774835,0.5628332399373992
9.993377483443709,0.5674090812055277
10.013245033112582,0.5722353620033533
10.033112582781456,0.5772860442778428
10.052980132450331,0.5825346449992853
10.072847682119205,0.5879544353189095
10.09271523178808,0.5935186226535089
10.112582781456952,0.5992005149525982
10.132450331125828,0.6049736670094755
10.152317880794701,0.6108120091733025
10.172185430463577,0.6166899592042612
10.192052980132452,0.6225825182963846
10.211920529801324,0.6284653524819291
10.2317880794702,0.6343148607427115
10.251655629139073,0.6401082311988159
10.271523178807948,0.6458234867398011
10.29139072847682,0.6514395214190806
10.311258278145695,0.656936128859733
10.331125827814569,0.6622940238300266
10.350993377483444,0.6674948580457338
10.370860927152318,0.6725212311513891
10.390728476821192,0.6773566977269173
10.410596026490065,0.6819857710649528
10.43046357615894,0.686393924368021
10.450331125827816,0.6905675899258855
10.470198675496688,0.6944941567532852
10.490066225165563,0.6981619670953092
10.509933774834437,0.7015603121439282
10.529801324503312,0.7046794272528532
10.549668874172186,0.7075104868886815
10.56953642384106,0.7100455995144954
10.589403973509933,0.7122778025655275
10.609271523178808,0.7142010576460848
10.629139072847682,0.715810246050386
10.649006622516556,0.7171011646884403
10.66887417218543,0.718070522478847
