Frequency (Hz),Amplitude
0.0,2.1110375605661567
0.01978021978021978,2.111485132987304
0.03956043956043956,2.112825582505391
0.05934065934065934,2.1150521266863027
0.07912087912087912,2.1181535303752086
0.0989010989010989,2.122114207534054
0.11868131868131868,2.1269143608451655
0.13846153846153844,2.1325301562527272
0.15824175824175823,2.1389339289969604
0.17802197802197803,2.146094417206223
0.1978021978021978,2.1539770187609943
0.21758241758241756,2.1625440669363387
0.23736263736263735,2.1717551202619867
0.2571428571428572,2.1815672621032647
0.2769230769230769,2.191935405646605
0.2967032967032967,2.2028126002523916
0.31648351648351647,2.2141503354949537
0.3362637362637363,2.2258988396224115
0.35604395604395606,2.238007369618027
0.3758241758241758,2.250424490508597
0.3956043956043956,2.263098342028231
0.4153846153846154,2.275976891192289
0.4351648351648351,2.2890081697546982
0.45494505494505494,2.3021404959044043
0.4747252747252747,2.3153226798970024
0.4945054945054945,2.328504213612864
0.5142857142857143,2.3416354442827156
0.5340659340659341,2.354667732826122
0.5538461538461538,2.3675535974102613
0.5736263736263736,2.3802468429593917
0.5934065934065934,2.392702677432553
0.6131868131868132,2.404877815744145
0.6329670329670329,2.4167305722315486
0.6527472527472528,2.428220942582291
0.6725274725274726,2.439310676122607
0.6923076923076923,2.4499633393448046
0.7120879120879121,2.4601443715148013
0.7318681318681318,2.4698211331575437
0.7516483516483516,2.4789629481681064
0.7714285714285715,2.487541140243317
0.7912087912087912,2.4955290642735397
0.810989010989011,2.5029021332786825
0.8307692307692308,2.5096378414174247
0.8505494505494506,2.5157157835448625
0.8703296703296702,2.5211176717416994
0.8901098901098901,2.5258273491884773
0.9098901098901099,2.529830801710593
0.9296703296703297,2.5331161672749443
0.9494505494505494,2.535673743676103
0.9692307692307692,2.537495994609203
0.989010989010989,2.5385775542878424
1.0087912087912088,2.5389152307283958
1.0285714285714287,2.5385080077856785
1.0483516483516484,2.5373570459904315
1.0681318681318681,2.5354656822042436
1.087912087912088,2.5328394280734785
1.1076923076923075,2.5294859672290335
1.1274725274725275,2.5254151511438176
1.1472527472527472,2.5206389935234728
1.1670329670329669,2.515171663068528
1.1868131868131868,2.5090294744068915
1.2065934065934065,2.5022308769545094
1.2263736263736265,2.4947964414185475
1.2461538461538462,2.4867488436119656
1.2659340659340659,2.4781128451999526
1.2857142857142858,2.46891527094838
1.3054945054945055,2.459184981991579
1.3252747252747252,2.448952844582259
1.3450549450549452,2.4382516937303382
1.3648351648351649,2.427116291081256
1.3846153846153846,2.4155832763283325
1.4043956043956045,2.403691111399937
1.4241758241758242,2.3914800166119607
1.443956043956044,2.3789918979318845
1.4637362637362636,2.366270264464411
1.4835164835164834,2.353360135244491
1.5032967032967033,2.3403079344132993
1.523076923076923,2.327161373861822
1.542857142857143,2.3139693224579894
1.5626373626373626,2.3007816610322247
1.5824175824175823,2.2876491223862714
1.6021978021978023,2.2746231157167838
1.621978021978022,2.261755535011257
1.6417582417582417,2.2490985511837835
1.6615384615384616,2.2367043879734356
1.6813186813186813,2.224625081930161
1.7010989010989013,2.2129122271606803
1.720879120879121,2.201616705896758
1.7406593406593405,2.1907884063746437
1.7604395604395604,2.1804759299683476
1.7802197802197801,2.1707262899888313
1.7999999999999998,2.161584605031243
1.8197802197802198,2.153093790205149
1.8395604395604395,2.145294249997898
1.8593406593406594,2.1382235768782554
1.879120879120879,2.1319162600230963
1.8989010989010988,2.1264034087248342
1.9186813186813187,2.121712495091982
1.9384615384615385,2.117867120576191
1.9582417582417584,2.114886810636819
1.978021978021978,2.112786841486793
1.9978021978021978,2.1115781023557894
2.0175824175824175,2.111266996071563
2.0373626373626372,2.111855380017915
2.0571428571428574,2.113340548704392
2.076923076923077,2.115715258310422
2.096703296703297,2.118967792679654
2.1164835164835165,2.123082069374614
2.1362637362637362,2.1280377835914708
2.1560439560439564,2.1338105870105615
2.175824175824176,2.140372298046167
2.195604395604396,2.147691139476753
2.215384615384615,2.155731999096931
2.2351648351648348,2.1644567088371525
2.254945054945055,2.1738243377440574
2.2747252747252746,2.183791494292659
2.2945054945054943,2.1943126336962684
2.314285714285714,2.205340366172523
2.3340659340659338,2.216825762492509
2.353846153846154,2.2287186535634094
2.3736263736263736,2.2409679212519364
2.3934065934065933,2.2535217781262387
2.413186813186813,2.2663280342608254
2.4329670329670328,2.279334349698048
2.452747252747253,2.2924884715790372
2.4725274725274726,2.305738455338882
2.4923076923076923,2.3190328696995732
2.512087912087912,2.3323209854871028
2.5318681318681318,2.345552948545713
2.5516483516483515,2.3586799372231937
2.5714285714285716,2.3716543050598617
2.5912087912087913,2.384429709432728
2.610989010989011,2.3969612269907787
2.6307692307692307,2.409205456770229
2.6505494505494505,2.4211206119059163
2.6703296703296706,2.432666600860142
2.6901098901098903,2.4438050990774314
2.70989010989011,2.4544996119471247
2.7296703296703297,2.464715529917983
2.7494505494505495,2.474420176563877
2.769230769230769,2.4835828503484705
2.7890109890109893,2.4921748607830976
2.808791208791209,2.5001695596159097
2.8285714285714287,2.5075423676344935
2.8483516483516484,2.5142707976085013
2.8681318681318677,2.5203344738449736
2.887912087912088,2.5257151487767677
2.9076923076923076,2.5303967169547676
2.9274725274725273,2.534365226766837
2.947252747252747,2.537608890161724
2.9670329670329667,2.540118090612991
2.986813186813187,2.5418853895176627
3.0065934065934066,2.542905531185396
3.0263736263736263,2.5431754465368477
3.046153846153846,2.5426942555940646
3.0659340659340657,2.541463268810438
3.085714285714286,2.539485987253547
3.1054945054945056,2.5367681016194945
3.1252747252747253,2.5333174900226463
3.145054945054945,2.5291442144692207
3.1648351648351647,2.5242605158865983
3.184615384615385,2.518680807542009
3.2043956043956046,2.512421666644695
3.2241758241758243,2.5055018238832454
3.243956043956044,2.4979421506059123
3.2637362637362637,2.4897656433045277
3.2835164835164834,2.4809974050132357
3.3032967032967036,2.4716646231814625
3.3230769230769233,2.4617965435257063
3.342857142857143,2.4514244393085756
3.3626373626373627,2.4405815754354867
3.3824175824175824,2.429303166700653
3.4021978021978025,2.4176263294559575
3.4219780219780223,2.405590025919943
3.441758241758242,2.393235000291376
3.4615384615384617,2.380603705785238
3.481318681318681,2.367740221670455
3.501098901098901,2.3546901593624465
3.520879120879121,2.341500556611735
3.5406593406593405,2.3282197588380384
3.5604395604395602,2.3148972866902677
3.58021978021978,2.301583688972619
3.5999999999999996,2.2883303801690724
3.61978021978022,2.275189461928545
3.6395604395604395,2.2622135280446636
3.659340659340659,2.249455452680614
3.679120879120879,2.2369681618546093
3.6989010989010986,2.2248043885144195
3.718681318681319,2.2130164118907225
3.7384615384615385,2.201655782224183
3.758241758241758,2.190773032404675
3.7780219780219784,2.1804173785332304
3.7978021978021976,2.17063641190546
3.8175824175824173,2.161475785404068
3.8373626373626375,2.1529788977583335
3.8571428571428568,2.1451865795588203
3.876923076923077,2.1381367852847224
3.896703296703296,2.1318642958843514
3.916483516483517,2.126400436626411
3.936263736263736,2.1217728149906123
3.956043956043956,2.11800508327629
3.9758241758241755,2.115116730368573
3.9956043956043956,2.1131229067103985
4.015384615384615,2.1120342859917995
4.035164835164835,2.1118569663992344
4.054945054945055,2.112592413488623
4.0747252747252745,2.1142374458849433
4.094505494505494,2.116784264102085
4.114285714285715,2.1202205218558987
4.134065934065934,2.1245294383481688
4.153846153846154,2.1296899491655403
4.173626373626373,2.13567689269678
4.193406593406594,2.1424612283503763
4.213186813186813,2.1500102823710083
4.232967032967033,2.1582880167186946
4.252747252747253,2.1672553162915635
4.2725274725274724,2.1768702897367973
4.292307692307692,2.187088579193957
4.312087912087913,2.1978636745327353
4.331868131868132,2.2091472279646953
4.351648351648352,2.2208893653011503
4.371428571428571,2.233038990576717
4.391208791208792,2.245544081235473
4.410989010989011,2.2583519715663725
4.43076923076923,2.271409622556627
4.450549450549451,2.284663876793396
4.4703296703296695,2.2980616974730093
4.49010989010989,2.3115503909649364
4.50989010989011,2.325077812720661
4.52967032967033,2.3385925566117125
4.549450549450549,2.3520441280272943
4.569230769230769,2.3653831012611777
4.589010989010989,2.3785612618727368
4.608791208791209,2.3915317348225003
4.628571428571428,2.4042490992620142
4.648351648351649,2.4166694909064677
4.6681318681318675,2.428750692941079
4.687912087912088,2.4404522164124245
4.707692307692308,2.45173537103898
4.7274725274725276,2.4625633273443817
4.747252747252747,2.4729011709752857
4.767032967032967,2.482715950017604
4.786813186813187,2.491976716070294
4.806593406593407,2.500654559780061
4.826373626373626,2.5087226414818256
4.846153846153847,2.5161562175319006
4.8659340659340655,2.5229326628641457
4.885714285714286,2.5290314902436464
4.905494505494506,2.534434366639683
4.9252747252747255,2.5391251270890183
4.945054945054945,2.5430897863721427
4.964835164835165,2.546316548780128
4.984615384615385,2.5487958162059505
5.004395604395604,2.550520194753873
5.024175824175824,2.5514845000209325
5.043956043956045,2.551685761167679
5.0637362637362635,2.5511232238589403
5.083516483516483,2.5497983521203476
5.103296703296703,2.547714829121294
5.123076923076923,2.544878556860599
5.142857142857143,2.5412976546955446
5.162637362637362,2.5369824566194814
5.182417582417583,2.53194550715526
5.2021978021978015,2.5262015556936457
5.221978021978022,2.5197675490642517
5.241758241758242,2.5126626220838744
5.2615384615384615,2.504908085780844
5.281318681318681,2.496527412945652
5.301098901098901,2.4875462206063705
5.320879120879121,2.47799224897306
5.340659340659341,2.467895336338047
5.36043956043956,2.457287389359394
5.380219780219781,2.4462023480933093
5.3999999999999995,2.434676145079088
5.41978021978022,2.422746657717198
5.43956043956044,2.4104536531209817
5.4593406593406595,2.3978387245645525
5.479120879120879,2.384945218598225
5.498901098901099,2.3718181518595536
5.518681318681319,2.3585041165772416
5.538461538461538,2.34505117374933
5.558241758241758,2.3315087329819084
5.578021978021979,2.3179274180034546
5.5978021978021975,2.304358916928575
5.617582417582418,2.2908558164385613
5.637362637362637,2.2774714191791285
5.6571428571428575,2.2642595438534707
5.676923076923077,2.2512743077151005
5.696703296703297,2.238569891442004
5.716483516483517,2.2262002867040755
5.736263736263735,2.2142190271169166
5.756043956043956,2.202678903705298
5.775824175824176,2.1916316664706446
5.795604395604395,2.1811277141604104
5.815384615384615,2.171215774858164
5.835164835164835,2.1619425805362322
5.854945054945055,2.1533525392158714
5.874725274725275,2.145487408841553
5.894505494505494,2.1383859773709837
5.914285714285715,2.132083753885855
5.934065934065933,2.126612675716964
5.953846153846154,2.1220008366299616
5.973626373626374,2.1182722410189636
5.993406593406593,2.1154465887946357
6.013186813186813,2.113539095229805
6.032967032967033,2.112560349445145
6.052747252747253,2.112516214496272
6.072527472527473,2.1134077711852357
6.092307692307692,2.1152313067955926
6.112087912087913,2.1179783489772004
6.131868131868131,2.121635744025247
6.151648351648352,2.126185777847645
6.171428571428572,2.1316063370347993
6.191208791208791,2.137871106669368
6.210989010989011,2.1449498008685772
6.230769230769231,2.152808421557262
6.2505494505494505,2.161409540636385
6.270329670329671,2.1707126005415422
6.29010989010989,2.1806742281720877
6.309890109890111,2.191248557301102
6.329670329670329,2.20238755482998
6.349450549450549,2.214041346607311
6.36923076923077,2.226158538964607
6.3890109890109885,2.2386865326069905
6.408791208791209,2.2515718260113498
6.428571428571428,2.2647603060064534
6.4483516483516485,2.2781975237204066
6.468131868131868,2.2918289545654353
6.487912087912088,2.3056002413776793
6.507692307692308,2.3194574202313647
6.527472527472527,2.3333471287986485
6.547252747252747,2.3472167974260407
6.567032967032967,2.3610148233461903
6.5868131868131865,2.3746907286421357
6.606593406593407,2.3881953027332923
6.626373626373626,2.4014807302629437
6.6461538461538465,2.414500705340772
6.665934065934065,2.4272105331357454
6.685714285714286,2.439567219830405
6.705494505494506,2.4515295519406046
6.725274725274725,2.463058165981312
6.745054945054945,2.4741156094212973
6.764835164835165,2.484666393822555
6.7846153846153845,2.4946770410058567
6.804395604395605,2.5041161230253217
6.824175824175824,2.51295429667367
6.8439560439560445,2.5211643331783278
6.863736263736263,2.5287211436871075
6.883516483516484,2.535601801082525
6.903296703296704,2.5417855586064055
6.923076923076923,2.5472538657211525
6.942857142857143,2.5519903815821054
6.962637362637362,2.555980986446008
6.9824175824175825,2.5592137912940363
7.002197802197802,2.561679145904184
7.021978021978022,2.5633696455660346
7.041758241758242,2.5642801365918038
7.061538461538461,2.564407720739681
7.081318681318681,2.563751758629095
7.101098901098901,2.562313872192106
7.1208791208791204,2.560097946169758
7.140659340659341,2.5571101286273117
7.16043956043956,2.5533588304264203
7.1802197802197805,2.548854723555643
7.199999999999999,2.5436107381826183
7.21978021978022,2.5376420582513646
7.23956043956044,2.5309661154055245
7.259340659340659,2.5236025809739857
7.279120879120879,2.515573355706885
7.298901098901099,2.506902556899224
7.318681318681318,2.4976165024846604
7.338461538461539,2.48774369162401
7.358241758241758,2.4773147812520193
7.3780219780219785,2.4663625579814146
7.397802197802197,2.4549219046967434
7.417582417582418,2.4430297611021614
7.437362637362638,2.43072507741837
7.457142857142857,2.418048760356233
7.476923076923077,2.4050436104297126
7.496703296703297,2.391754249611469
7.516483516483516,2.378227038283565
7.536263736263736,2.3645099803966634
7.556043956043957,2.3506526157286127
7.575824175824176,2.3367058981309885
7.595604395604395,2.3227220586765434
7.615384615384615,2.3087544526756054
7.635164835164835,2.294857389622801
7.654945054945055,2.281085945271195
7.674725274725275,2.267495755215457
7.694505494505494,2.2541427896035082
7.7142857142857135,2.241083108890448
7.734065934065935,2.228372600901766
7.753846153846154,2.2160666998834735
7.7736263736263735,2.2042200886825767
7.793406593406592,2.19288638571449
7.813186813186814,2.1821178189240773
7.832967032967034,2.171964889519951
7.852747252747252,2.162476028837467
7.872527472527472,2.1536972522429116
7.892307692307693,2.1456718145038254
7.912087912087912,2.1384398714902084
7.931868131868132,2.1320381534109045
7.951648351648351,2.126499655001997
7.971428571428572,2.1218533481453554
7.991208791208791,2.1181239222883894
8.010989010989011,2.1153315577489122
8.03076923076923,2.113491736520058
8.05054945054945,2.112615094547359
8.07032967032967,2.112707318650934
8.09010989010989,2.1137690903378608
8.10989010989011,2.115796077729499
8.129670329670331,2.118778975756312
8.149450549450549,2.1227035936954075
8.169230769230769,2.1275509880878074
8.189010989010988,2.1332976381172406
8.20879120879121,2.1399156596968534
8.22857142857143,2.147373053824618
8.248351648351647,2.1556339842528436
8.268131868131867,2.164659079182073
8.287912087912087,2.1744057515352453
8.307692307692308,2.184828532385931
8.327472527472528,2.195879412287348
8.347252747252746,2.2075081855557177
8.367032967032966,2.2196627929748898
8.386813186813187,2.2322896588823884
8.406593406593407,2.2453340191415108
8.426373626373627,2.2587402370741887
8.446153846153845,2.2724521050013586
8.465934065934066,2.2864131295922343
8.485714285714286,2.3005667997448556
8.505494505494505,2.3148568361965576
8.525274725274725,2.3292274224865235
8.545054945054945,2.3436234172588915
8.564835164835165,2.3579905482034547
8.584615384615384,2.3722755881821667
8.604395604395604,2.3864265142872307
8.624175824175826,2.4003926507246653
8.643956043956043,2.4141247965207495
8.663736263736263,2.427575339114322
8.683516483516483,2.440698354929956
8.703296703296704,2.453449698032472
8.723076923076924,2.4657870779463433
8.742857142857142,2.4776701276895507
8.762637362637362,2.4890604630246034
8.782417582417583,2.4999217338731925
8.802197802197803,2.5102196687785474
8.821978021978023,2.5199221132336875
8.84175824175824,2.528999062626149
8.86153846153846,2.5374226904826163
8.881318681318682,2.5451673726305475
8.901098901098901,2.552209707830441
8.920879120879121,2.5585285353710874
8.940659340659339,2.5641049500625916
8.96043956043956,2.5689223150074243
8.98021978021978,2.572966272478712
9.0,2.576224753186932
9.01978021978022,2.578687984171447
9.03956043956044,2.580348495510982
9.05934065934066,2.581201126006918
9.079120879120879,2.5812430279555527
9.098901098901099,2.5804736710881278
9.11868131868132,2.5788948457221044
9.138461538461538,2.5765106651312344
9.158241758241758,2.5733275671065563
9.178021978021977,2.5693543146442037
9.197802197802199,2.56460199565828
9.217582417582419,2.5590840215782027
9.237362637362637,2.552816124648328
9.257142857142856,2.5458163537039247
9.276923076923078,2.5381050681502946
9.296703296703297,2.52970492982133
9.316483516483517,2.520640892339425
9.336263736263735,2.510940187539931
9.356043956043957,2.500632308461026
9.375824175824176,2.4897489883327335
9.395604395604396,2.478324174928323
9.415384615384616,2.4663939995672037
9.435164835164835,2.453996739981701
9.454945054945055,2.4411727761818285
9.474725274725275,2.4279645383743413
9.494505494505495,2.414416445916173
9.514285714285714,2.4005748362114017
9.534065934065934,2.386487882397754
9.553846153846154,2.3722054986174657
9.573626373626373,2.3577792316325628
9.593406593406593,2.343262137531792
9.613186813186815,2.3287086422910894
9.632967032967032,2.3141743849981786
9.652747252747252,2.299716042641688
9.672527472527472,2.285391135502164
9.692307692307693,2.2712578123742375
9.712087912087913,2.2573746151005727
9.731868131868131,2.2438002222149045
9.75164835164835,2.2305931718753547
9.771428571428572,2.2178115647207313
9.791208791208792,2.2055127477987524
9.810989010989012,2.193752981288469
9.83076923076923,2.182587090358735
9.850549450549451,2.1720681051530226
9.87032967032967,2.1622468925479024
9.89010989010989,2.1531717839711946
9.90989010989011,2.1448882041569863
9.92967032967033,2.1374383062261293
9.94945054945055,2.1308606188787023
9.96923076923077,2.1251897117384826
9.989010989010989,2.120455884969653
10.008791208791209,2.1166848891719905
10.028571428571428,2.1138976812385137
10.048351648351648,2.112110221327592
10.068131868131868,2.111333315367556
10.08791208791209,2.111572506598924
10.107692307692307,2.1128280185982486
10.127472527472527,2.1150947510627454
10.147252747252747,2.1183623284141335
10.167032967032966,2.1226152000581435
10.186813186813188,2.1278327899656184
10.206593406593406,2.1339896921723827
10.226373626373626,2.141055907870557
10.246153846153845,2.148997119017664
10.265934065934067,2.15777499284284
10.285714285714286,2.16734751129224
10.305494505494504,2.177669319326135
10.325274725274724,2.1886920860456534
10.345054945054946,2.2003648728663463
10.364835164835165,2.2126345033415626
10.384615384615385,2.2254459297387013
10.404395604395603,2.238742592054061
10.424175824175824,2.2524667657833226
10.443956043956044,2.266559895416718
10.463736263736264,2.28096291127312
10.483516483516484,2.2956165279049405
10.503296703296703,2.3104615228789034
10.523076923076923,2.325438995254703
10.542857142857143,2.340490603536972
10.562637362637362,2.355558783262449
10.582417582417584,2.3705869447036574
10.602197802197802,2.3855196514257195
10.621978021978022,2.40030278062769
10.641758241758241,2.4148836663411064
10.661538461538463,2.429211226651237
10.681318681318682,2.4432360761591676
