Frequency (Hz),Amplitude
0.0,2.496111982074282
0.01993355481727575,2.5011962223751745
0.0398671096345515,2.5163674594292273
0.059800664451827246,2.541386170214037
0.079734219269103,2.575868869805648
0.09966777408637874,2.6193093914578585
0.11960132890365449,2.671104654263713
0.13953488372093023,2.730582022412356
0.159468438538206,2.7970257018093934
0.17940199335548174,2.8697002929792075
0.19933554817275748,2.9478704004829517
0.21926910299003324,3.0308159091061286
0.23920265780730898,3.117843074438466
0.25913621262458475,3.2082919131512555
0.27906976744186046,3.3015405393907002
0.29900332225913623,3.3970071243416307
0.318936877076412,3.494150104931374
0.3388704318936877,3.592467175227765
0.3588039867109635,3.691493488773611
0.37873754152823924,3.7907993991688667
0.39867109634551495,3.8899879784027567
0.4186046511627907,3.9886924808104665
0.4385382059800665,4.0865738648269705
0.4584717607973422,4.183318443032568
0.47840531561461797,4.278635700840091
0.49833887043189373,4.372256303073466
0.5182724252491695,4.463930293427146
0.5382059800664452,4.553425482558499
0.5581395348837209,4.640526014921138
0.5780730897009968,4.72503110130954
0.5980066445182725,4.806753902650687
0.6179401993355482,4.885520550265013
0.637873754152824,4.961169288214887
0.6578073089700996,5.033549724177442
0.6777408637873754,5.10252217632464
0.6976744186046512,5.16795710483775
0.717607973421927,5.229734617842104
0.7375415282392027,5.28774404266967
0.7574750830564785,5.341883554411964
0.7774086378737541,5.392059854699125
0.7973421926910299,5.438187894526802
0.8172757475083057,5.4801906357519545
0.8372093023255814,5.51799884659569
0.8571428571428572,5.55155092713213
0.877076411960133,5.580792761315339
0.8970099667774087,5.6056775926080284
0.9169435215946844,5.626165920735243
0.9368770764119602,5.642225417500082
0.9568106312292359,5.653830859974529
0.9767441860465116,5.660964079722663
0.9966777408637875,5.663613927033007
1.0166112956810631,5.6617762494367065
1.036544850498339,5.655453884074767
1.0564784053156147,5.644656663755568
1.0764119601328903,5.629401436819558
1.0963455149501662,5.609712101204781
1.1162790697674418,5.585619653392422
1.1362126245847177,5.557162253208597
1.1561461794019936,5.524385305775026
1.176079734219269,5.487341562241042
1.196013289036545,5.446091241300395
1.2159468438538206,5.400702173903566
1.2358803986710964,5.351249974028584
1.255813953488372,5.297818238876468
1.275747508305648,5.240498782420362
1.2956810631229239,5.179391906867675
1.3156146179401993,5.114606717299024
1.3355481727574752,5.046261485534513
1.3554817275747508,4.974484070149968
1.3754152823920267,4.899412400525876
1.3953488372093024,4.8211950338546075
1.4152823920265782,4.73999179514443
1.435215946843854,4.655974511414409
1.4551495016611296,4.569327852424815
1.4750830564784054,4.480250291356445
1.495016611295681,4.3889551997161185
1.514950166112957,4.29567209122335
1.5348837209302328,4.200648029252574
1.5548172757475083,4.10414921117835
1.5747508305647842,4.006462740143924
1.5946843853820598,3.907898589583587
1.6146179401993357,3.808791757236445
1.6345514950166113,3.709504592023363
1.6544850498338872,3.610429257264608
1.6744186046511629,3.5119902651481016
1.6943521594684385,3.414646977661719
1.7142857142857144,3.318895915859318
1.73421926910299,3.2252726502938307
1.754152823920266,3.1343529601154136
1.7740863787375416,3.0467528491009643
1.7940199335548175,2.9631269014185233
1.8139534883720931,2.884164363969665
1.8338870431893688,2.81058228223279
1.8538205980066447,2.7431150312146415
1.8737541528239203,2.682499720307675
1.893687707641196,2.629457258112351
1.9136212624584719,2.5846693690181977
1.9335548172757475,2.5487525402853426
1.9534883720930232,2.5222306580094016
1.9734219269102993,2.505508794602745
1.993355481727575,2.498851019120625
2.0132890365448506,2.5023650126724224
2.0332225913621262,2.515995592993821
2.0531561461794023,2.539528074266865
2.073089700996678,2.572600977512003
2.0930232558139537,2.6147263189809564
2.1129568106312293,2.665314847393298
2.132890365448505,2.7237033261082235
2.1528239202657806,2.789181224728944
2.1727574750830567,2.861014819268628
2.1926910299003324,2.9384674770785
2.212624584717608,3.0208156325417588
2.2325581395348837,3.107360527747586
2.25249169435216,3.197436161355879
2.2724252491694354,3.29041407556467
2.292358803986711,3.385705659427729
2.312292358803987,3.4827626059733774
2.332225913621263,3.5810760727335387
2.352159468438538,3.6801749907604524
2.3720930232558137,3.7796238648959517
2.39202657807309,3.879020317881926
2.4119601328903655,3.9779925566626706
2.431893687707641,4.076196881085001
2.4518272425249172,4.173315311433985
2.471760797342193,4.269053379410903
2.4916943521594686,4.36313810475499
2.511627906976744,4.455316164472459
2.5315614617940203,4.545352251687198
2.551495016611296,4.633027614977184
2.5714285714285716,4.718138765572142
2.5913621262458477,4.800496338116606
2.611295681063123,4.87992409023445
2.6312292358803986,4.956258026430022
2.6511627906976742,5.029345632622939
2.6710963455149503,5.099045208630331
2.691029900332226,5.1652252870429605
2.7109634551495017,5.227764128100615
2.7308970099667778,5.286549281300575
2.7508305647840534,5.3414772055394355
2.770764119601329,5.392452940574294
2.7906976744186047,5.43938982348947
2.810631229235881,5.482209244666963
2.8305647840531565,5.520840438489098
2.850498338870432,5.555220304654093
2.870431893687708,5.58529325656868
2.8903654485049834,5.611011093802982
2.910299003322259,5.632332896060366
2.9302325581395348,5.6492249365357745
2.950166112956811,5.661660612917816
2.9700996677740865,5.669620394639026
2.990033222591362,5.673091785302053
3.0099667774086383,5.672069299512392
3.029900332225914,5.66655445363688
3.0498338870431896,5.656555770286833
3.0697674418604657,5.642088796600218
3.089700996677741,5.623176136674506
3.1096345514950166,5.59984749878559
3.129568106312292,5.572139758323802
3.1495016611295683,5.540097037691297
3.169435215946844,5.503770804741504
3.1893687707641196,5.463219991707256
3.2093023255813957,5.4185111369663925
3.2292358803986714,5.369718552438192
3.249169435215947,5.316924519899989
3.2691029900332227,5.260219520066379
3.289036544850499,5.199702498893375
3.3089700996677744,5.135481176262804
3.32890365448505,5.067672402975975
3.3488372093023258,4.996402572844495
3.3687707641196014,4.921808097612551
3.388704318936877,4.84403595347513
3.4086378737541527,4.763244309059169
3.428571428571429,4.679603245884541
3.4485049833887045,4.593295583475104
3.46843853820598,4.504517822374536
3.4883720930232562,4.413481219222965
3.508305647840532,4.320413008596574
3.5282392026578075,4.225557786247651
3.548172757475083,4.1291790673381294
3.5681063122923593,4.031561030711581
3.588039867109635,3.9330104554691476
3.60797342192691,3.833858848112064
3.6279069767441863,3.7344647459729488
3.647840531561462,3.6352161638887543
3.6677740863787376,3.536533123986952
3.6877076411960132,3.4388701706513674
3.7076411960132893,3.342718721679197
3.727574750830565,3.248609040178309
3.7475083056478407,3.1571115289811296
3.7674418604651168,3.068836952085197
3.787375415282392,2.98443508254681
3.807308970099668,2.9045911776245212
3.8272425249169437,2.830019614459786
3.8471760797342194,2.7614540198344937
3.867109634551495,2.699633342283466
3.887043189368771,2.645283592505194
3.9069767441860463,2.599095451466056
3.9269102990033224,2.56169860657352
3.9468438538205985,2.533634448907669
3.9667774086378738,2.5153294929759453
3.98671096345515,2.5070723499595746
4.0066445182724255,2.50899708557625
4.026578073089701,2.521075210050189
4.046511627906977,2.5431174383593724
4.0664451827242525,2.574784965571453
4.086378737541528,2.615608673575354
4.106312292358805,2.6650137457922445
4.1262458471760795,2.7223467955528946
4.146179401993356,2.7869028022906126
4.166112956810632,2.8579497379416883
4.186046511627907,2.9347495323493953
4.205980066445183,3.016574772402064
4.225913621262459,3.102721127762294
4.245847176079734,3.1925158973189913
4.26578073089701,3.2853232846426392
4.2857142857142865,3.3805470787376226
4.305647840531561,3.4776313875354745
4.325581395348838,3.5760599894856493
4.345514950166113,3.6753547655723113
4.365448504983389,3.7750735707569785
4.385382059800665,3.87480781142235
4.40531561461794,3.9741799185175215
4.425249169435216,4.072840845414201
4.445182724252492,4.170467673495045
4.465116279069767,4.2667613748461735
4.485049833887043,4.361444757597095
4.50498338870432,4.454260603136988
4.524916943521594,4.544969993694794
4.544850498338871,4.633350822052039
4.5647840531561465,4.71919647127106
4.584717607973422,4.802314650377951
4.604651162790698,4.882526371291643
4.624584717607974,4.959665052474598
4.644518272425249,5.0335757354734305
4.664451827242526,5.10411440149649
4.6843853820598005,5.171147376291006
4.704318936877076,5.234550812737778
4.724252491694353,5.294210241715209
4.7441860465116275,5.350020182860515
4.764119601328904,5.401883807854981
4.78405315614618,5.449712649773302
4.803986710963455,5.493426352863793
4.823920265780731,5.5329524578689355
4.8438538205980075,5.568226218660993
4.863787375415282,5.5991904465615825
4.883720930232559,5.6257953792455275
4.9036544850498345,5.6479985716054095
4.92358803986711,5.665764806381877
4.943521594684386,5.679066022752813
4.963455149501661,5.687881261429458
4.983388704318937,5.69219662513499
5.003322259136213,5.692005253647852
5.023255813953488,5.687307312883249
5.043189368770764,5.67810999776762
5.063122923588041,5.664427548937723
5.083056478405315,5.646281283573175
5.102990033222592,5.623699640954513
5.122923588039868,5.5967182436331475
5.142857142857143,5.565379975410334
5.162790697674419,5.5297350776557135
5.182724252491695,5.489841265857665
5.20265780730897,5.445763868694418
5.222591362126246,5.397575992353725
5.242524916943522,5.3453587133166325
5.262458471760797,5.289201303365847
5.282392026578074,5.229201491188718
5.3023255813953485,5.1654657656268
5.322259136212625,5.098109726385026
5.342192691029901,5.027258488859391
5.362126245847176,4.95304715067459
5.382059800664452,4.875621328540252
5.4019933554817285,4.795137775125378
5.421926910299003,4.71176508679326
5.44186046511628,4.625684514192126
5.4617940199335555,4.537090888792886
5.48172757475083,4.446193679397289
5.501661129568107,4.353218193245097
5.5215946843853825,4.258406936386452
5.541528239202658,4.162021147105899
5.561461794019934,4.064342513890074
5.5813953488372094,3.965675085029018
5.601328903654485,3.866347369486039
5.621262458471762,3.7667146169025054
5.641196013289036,3.667161246895962
5.661129568106313,3.5681033721439204
5.681063122923589,3.46999132376045
5.700996677740864,3.373312038650365
5.72093023255814,3.2785911046222935
5.740863787375416,3.186394178900479
5.760797342192691,3.097327400585027
5.780730897009967,3.0120363133321586
5.800664451827243,2.931202713936409
5.820598006644518,2.8555387684208946
5.840531561461795,2.7857777243211026
5.8604651162790695,2.7226606413690067
5.880398671096346,2.6669188115567914
5.900332225913622,2.6192519801777108
5.920265780730897,2.580303111939818
5.940199335548173,2.5506312071089012
5.960132890365449,2.530684419156904
5.980066445182724,2.5207762500811755
6.0,2.521067686650253
6.0199335548172765,2.5315576548818113
6.039867109634551,2.552083138003122
6.059800664451828,2.5823289384739483
6.0797342192691035,2.621845705142348
6.099667774086379,2.6700738279988374
6.119601328903655,2.726370333783819
6.139534883720931,2.7900360173791072
6.159468438538206,2.8603405774676887
6.179401993355482,2.9365442738237135
6.1993355481727574,3.017915381736607
6.219269102990033,3.1037433461450274
6.23920265780731,3.193347972722747
6.259136212624584,3.2860852368657603
6.279069767441861,3.381350381467782
6.299003322259137,3.4785789593495746
6.318936877076412,3.5772464012121072
6.338870431893688,3.6768665892720573
6.3588039867109645,3.776989812793202
6.378737541528239,3.8772003871747702
6.398671096345516,3.9771141386973863
6.418604651162791,4.0763758936593115
6.438538205980066,4.174657062265063
6.458471760797343,4.271653372001715
6.4784053156146175,4.367082779843594
6.498338870431894,4.460683575116463
6.51827242524917,4.552212673223732
6.538205980066445,4.64144409307741
6.558139534883721,4.728167606737029
6.578073089700998,4.812187547504106
6.598006644518272,4.893321761862862
6.617940199335549,4.9714006907060515
6.6378737541528245,5.04626656589496
6.6578073089701,5.117772709133149
6.677740863787376,5.185782921226549
6.6976744186046515,5.2501709509504755
6.717607973421927,5.310820033881011
6.737541528239203,5.367622492633654
6.7574750830564785,5.420479390963555
6.777408637873754,5.469300235109159
6.797342192691031,5.514002716602192
6.8172757475083055,5.554512491524048
6.837209302325582,5.590762991866777
6.857142857142858,5.622695265263565
6.877076411960133,5.650257839895983
6.897009966777409,5.673406611870865
6.9169435215946855,5.692104752797163
6.93687707641196,5.706322635688278
6.956810631229236,5.716037777676782
6.9767441860465125,5.721234798360891
6.996677740863787,5.721905392913221
7.016611295681064,5.718048319376534
7.036544850498339,5.709669399855383
7.056478405315615,5.696781535590449
7.076411960132891,5.67940473618083
7.096345514950166,5.657566163502173
7.116279069767442,5.6313001911622385
7.136212624584719,5.600648480644318
7.156146179401993,5.565660075619571
7.17607973421927,5.526391516267326
7.196013289036546,5.482906975834598
7.21594684385382,5.43527842209874
7.235880398671097,5.383585806878095
7.2558139534883725,5.327917287272319
7.275747508305648,5.268369482913694
7.295681063122924,5.205047774182251
7.3156146179402,5.138066647086401
7.335548172757475,5.067550091343725
7.355481727574752,4.993632059115841
7.3754152823920265,4.916456992854926
7.395348837209303,4.8361804317992005
7.415282392026579,4.752969707788595
7.435215946843854,4.667004742223607
7.45514950166113,4.578478957095063
7.475083056478406,4.487600313971451
7.495016611295681,4.394592495489071
7.514950166112956,4.299696244022091
7.5348837209302335,4.203170871482144
7.554817275747508,4.105295952140547
7.574750830564784,4.006373206320111
7.5946843853820605,3.9067285758671595
7.614617940199336,3.8067144812823535
7.634551495016611,3.7067122336988563
7.6544850498338874,3.607134550596292
7.674418604651163,3.508428089924854
7.694352159468439,3.4110758706850204
7.714285714285715,3.315599386654958
7.73421926910299,3.2225601424997317
7.754152823920266,3.1325602487402033
7.774086378737542,3.0462416089051336
7.794019933554818,2.964283130174348
7.813953488372093,2.887395308949665
7.83388704318937,2.8163115176462723
7.853820598006645,2.751775392221264
7.8737541528239205,2.6945239403095163
7.893687707641197,2.64526639704936
7.913621262458472,2.604659457470589
7.9335548172757475,2.5732802593190294
7.953488372093024,2.5515992494133997
7.9734219269103,2.53995564169627
7.9933554817275745,2.5385383473947902
8.013289036544851,2.547374872731909
8.033222591362128,2.566329733250391
8.053156146179402,2.595112608789649
8.073089700996679,2.6332950819177983
8.093023255813954,2.6803337090476247
8.11295681063123,2.7355966033275068
8.132890365448505,2.7983907158726136
8.152823920265782,2.8679874718721305
8.172757475083056,2.9436451421598604
8.192691029900331,3.024627097093654
8.21262458471761,3.1102157447560153
8.232558139534884,3.199722424980052
8.252491694352159,3.2924938064811764
8.272425249169435,3.3879154488550505
8.292358803986712,3.485413192176333
8.312292358803987,3.584452970547912
8.332225913621263,3.684539548457418
8.352159468438538,3.785214574659166
8.372093023255815,3.8860542517186927
8.392026578073091,3.9866668370215455
8.411960132890366,4.086690124822647
8.43189368770764,4.185789007950885
8.451827242524917,4.28365317997839
8.471760797342194,4.379995011527756
8.491694352159469,4.474547615540899
8.511627906976745,4.567063103703159
8.53156146179402,4.657311028128009
8.551495016611296,4.745076997549521
8.571428571428573,4.830161454655648
8.591362126245848,4.912378600094425
8.611295681063122,4.99155544857612
8.6312292358804,5.067531003004364
8.651162790697676,5.140155533443063
8.67109634551495,5.209289948788816
8.691029900332227,5.274805250156819
8.710963455149502,5.336582056125217
8.730897009966778,5.394510191078376
8.750830564784053,5.448488328912964
8.77076411960133,5.498423685314036
8.790697674418604,5.54423175266442
8.81063122923588,5.585836072423789
8.830564784053157,5.6231680405064015
8.850498338870432,5.6561667418065795
8.870431893687707,5.684778810575573
8.890365448504983,5.708958313850492
8.91029900332226,5.728666655582201
8.930232558139535,5.743872499513461
8.950166112956811,5.75455170922652
8.970099667774086,5.760687304118207
8.990033222591363,5.762269430376431
9.00996677740864,5.759295346330636
9.029900332225914,5.751769421835305
9.049833887043189,5.7397031516263795
9.069767441860467,5.723115182869445
9.089700996677742,5.702031357402332
9.109634551495017,5.676484769467385
9.129568106312293,5.646515840036519
9.14950166112957,5.61217240916021
9.169435215946844,5.573509848126673
9.189368770764121,5.530591193605216
9.209302325581396,5.483487306374733
9.22923588039867,5.432277057713462
9.249169435215949,5.377047547054298
9.269102990033224,5.317894355101173
9.289036544850498,5.254921837262989
9.308970099667773,5.1882434629989795
9.328903654485051,5.117982207490151
9.348837209302326,5.044271002957481
9.368770764119601,4.967253257938878
9.388704318936878,4.8870834539050865
9.408637873754152,4.8039278297211805
9.428571428571429,4.717965165609721
9.448504983388705,4.62938767938625
9.46843853820598,4.538402048721851
9.488372093023255,4.445230573898959
9.508305647840533,4.350112495749345
9.528239202657808,4.253305482885204
9.548172757475083,4.155087300509091
9.56810631229236,4.055757669390301
9.588039867109636,3.955640317166041
9.60797342192691,3.8550852138155567
9.627906976744187,3.754470967464275
9.647840531561462,3.654207333720638
9.667774086378738,3.5547377592844933
9.687707641196015,3.456541836117627
9.70764119601329,3.3601374836702558
9.727574750830565,3.2660826019267075
9.747508305647841,3.174975847722712
9.767441860465118,3.087456084967419
9.787375415282392,3.0041999563064974
9.807308970099669,2.9259169385806243
9.827242524916944,2.853341207636707
9.84717607973422,2.7872196914631187
9.867109634551497,2.7282958826308463
9.887043189368772,2.6772893540328644
9.906976744186046,2.6348714908690734
9.926910299003321,2.601638677390798
9.9468438538206,2.578084944440807
9.966777408637874,2.5645767056452553
9.986710963455149,2.5613324669126514
10.006644518272426,2.5684101140330178
10.026578073089702,2.585703531267309
10.046511627906977,2.6129490292972166
10.066445182724253,2.6497406666597447
10.086378737541528,2.6955523832183417
10.106312292358805,2.7497641893292855
10.126245847176081,2.8116895589474096
10.146179401993356,2.8806015713551636
10.16611295681063,2.955756037520626
10.186046511627907,3.0364106173037486
10.205980066445184,3.121839616518944
10.225913621262459,3.2113446592445425
10.245847176079735,3.3042617418068256
10.26578073089701,3.399965317091734
10.285714285714286,3.4978700773919167
10.305647840531563,3.5974310479853058
10.325581395348838,3.698142510372017
10.345514950166113,3.799536170190842
10.36544850498339,3.901178886274317
10.385382059800666,4.002670192024241
10.40531561461794,4.103639770943812
10.425249169435217,4.20374499432643
10.445182724252492,4.302668588852608
10.465116279069768,4.4001164727437665
10.485049833887045,4.495815778748179
10.50498338870432,4.5895130684618115
10.524916943521594,4.680972733562175
10.544850498338871,4.76997557407941
10.564784053156147,4.856317540798903
10.584717607973422,4.939808627507625
10.604651162790697,5.020271898502056
10.624584717607974,5.097542637169666
10.64451827242525,5.171467602261289
10.664451827242525,5.241904379499503
10.684385382059801,5.308720817291897
10.704318936877076,5.3717945364568696
10.724252491694353,5.431012504972893
10.74418604651163,5.4862706698008274
10.764119601328904,5.537473638788169
10.784053156146179,5.584534406538505
10.803986710963457,5.627374118919175
10.823920265780732,5.665921871589843
10.843853820598007,5.700114538569927
10.863787375415283,5.729896627431343
10.88372093023256,5.755220158212544
