Frequency (Hz),Amplitude
0.0,0.22741841879906066
0.019867549668874173,0.2274899370895731
0.039735099337748346,0.2277040630958443
0.059602649006622516,0.22805951545161537
0.07947019867549669,0.22855417582597887
0.09933774834437085,0.22918511431971547
0.11920529801324503,0.2299486240032226
0.13907284768211922,0.23084026364419166
0.15894039735099338,0.23185490748862375
0.17880794701986755,0.23298680082928563
0.1986754966887417,0.23422962002407485
0.2185430463576159,0.23557653561212122
0.23841059602649006,0.23702027721262522
0.2582781456953642,0.23855319897279298
0.27814569536423844,0.2401673444479498
0.2980132450331126,0.2418545099388162
0.31788079470198677,0.2436063054671421
0.33774834437086093,0.24541421273405595
0.3576158940397351,0.24726963956483797
0.3774834437086093,0.24916397049608244
0.3973509933774834,0.2510886132979637
0.4172185430463576,0.25303504134673954
0.4370860927152318,0.2549948318640629
0.45695364238410596,0.2569597001252173
0.4768211920529801,0.258921529802608
0.49668874172185434,0.2608723996614058
0.5165562913907285,0.2628046068570333
0.5364238410596026,0.26471068710553913
0.5562913907284769,0.26658343200741214
0.5761589403973509,0.26841590380666386
0.5960264900662252,0.27020144786068084
0.6158940397350993,0.2719337030853271
0.6357615894039735,0.27360661062459907
0.6556291390728477,0.2752144209768587
0.6754966887417219,0.27675169979105746
0.695364238410596,0.2782133325264562
0.7152317880794702,0.2795945281509103
0.7350993377483444,0.28089082203326465
0.7549668874172186,0.282098078168219
0.7748344370860927,0.28321249085509625
0.7947019867549668,0.2842305859364416
0.8145695364238411,0.2851492216885687
0.8344370860927152,0.2859655894429341
0.8543046357615894,0.28667721400604307
0.8741721854304636,0.2872819539348285
0.8940397350993378,0.28777800171545564
0.9139072847682119,0.28816388388467074
0.9337748344370861,0.28843846112599897
0.9536423841059603,0.2886009283652999
0.9735099337748344,0.2886508148848674
0.9933774834437087,0.28858798446878087
1.0132450331125828,0.288412635586954
1.033112582781457,0.28812530162006117
1.0529801324503312,0.2877268511219658
1.0728476821192052,0.28721848811110223
1.0927152317880795,0.2866017523764148
1.1125827814569538,0.28587851977761203
1.1324503311258278,0.28505100251280113
1.1523178807947019,0.284121749319499
1.1721854304635762,0.28309364556713823
1.1920529801324504,0.2819699131899383
1.2119205298013245,0.28075411039967396
1.2317880794701985,0.279450131106289
1.2516556291390728,0.2780622039622734
1.271523178807947,0.27659489093281475
1.2913907284768211,0.275053085279135
1.3112582781456954,0.2734420088252509
1.3311258278145695,0.271767208361634
1.3509933774834437,0.27003455101949875
1.370860927152318,0.2682502184302159
1.390728476821192,0.26642069946401076
1.410596026490066,0.26455278132159354
1.4304635761589404,0.26265353873307457
1.4503311258278146,0.2607303210007273
1.4701986754966887,0.25879073660671564
1.4900662251655628,0.2568426350968894
1.5099337748344372,0.25489408594570817
1.5298013245033113,0.2529533541113479
1.5496688741721854,0.2510288720018895
1.5695364238410596,0.24912920759861693
1.5894039735099337,0.24726302852121473
1.609271523178808,0.24543906187521855
1.6291390728476822,0.24366604979548084
1.6490066225165563,0.24195270069192562
1.6688741721854303,0.24030763631677332
1.6887417218543048,0.2387393349033133
1.7086092715231789,0.2372560707747616
1.728476821192053,0.23586585098238516
1.7483443708609272,0.2345763497011277
1.7682119205298013,0.2333948412788884
1.7880794701986755,0.23232813299588878
1.8079470198675496,0.23138249873171146
1.8278145695364238,0.23056361484845972
1.847682119205298,0.22987649967083693
1.8675496688741722,0.22932545796595719
1.8874172185430464,0.22891403179213313
1.9072847682119205,0.22864495899187437
1.9271523178807946,0.22852014045047292
1.9470198675496688,0.22854061703145576
1.9668874172185429,0.2287065568429878
1.9867549668874174,0.22901725319714994
2.0066225165562916,0.22947113331224914
2.0264900662251657,0.2300657774941303
2.0463576158940397,0.23079794823272326
2.066225165562914,0.23166362838156515
2.086092715231788,0.23265806736255903
2.1059602649006623,0.23377583416778888
2.1258278145695364,0.2350108758176229
2.1456953642384105,0.23635657988324263
2.165562913907285,0.23780583968740052
2.185430463576159,0.2393511208547233
2.205298013245033,0.2409845279823981
2.2251655629139075,0.24269787033469584
2.2450331125827816,0.2444827256187441
2.2649006622516556,0.24633050106473717
2.2847682119205297,0.24823249120186727
2.3046357615894038,0.2501799318839734
2.324503311258278,0.2521640502702075
2.3443708609271523,0.25417611060162365
2.364238410596027,0.2562074557322471
2.384105960264901,0.2582495444708765
2.403973509933775,0.2602939848689233
2.423841059602649,0.2623325636497067
2.443708609271523,0.2643572720183025
2.463576158940397,0.26636032811983607
2.4834437086092715,0.2683341964303554
2.5033112582781456,0.270271604370062
2.52317880794702,0.27216555642648677
2.543046357615894,0.2740093460659668
2.562913907284768,0.2757965656986376
2.5827814569536423,0.27752111494500964
2.6026490066225163,0.2791772074339351
2.622516556291391,0.2807593763416077
2.642384105960265,0.28226247886164746
2.662251655629139,0.2836816997764542
2.6821192052980134,0.2850125542813585
2.7019867549668874,0.2862508901952742
2.7218543046357615,0.287392889674959
2.741721854304636,0.2884350705349812
2.76158940397351,0.2893742872614174
2.781456953642384,0.29020773179507053
2.801324503311258,0.2909329341485366
2.821192052980132,0.291547762911486
2.8410596026490067,0.2920504256896694
2.8609271523178808,0.2924394695147271
2.8807947019867552,0.29271378125513364
2.9006622516556293,0.2928725880515714
2.9205298013245033,0.2929154577943786
2.9403973509933774,0.29284229965474035
2.9602649006622515,0.2926533646762428
2.9801324503311255,0.2923492464278789
3.0,0.2919308817144476
3.0198675496688745,0.29139955133488293
3.0397350993377485,0.29075688087312473
3.0596026490066226,0.29000484150016526
3.0794701986754967,0.289145750758909
3.0993377483443707,0.2881822732960306
3.119205298013245,0.28711742149650943
3.1390728476821192,0.2859545559670944
3.1589403973509933,0.28469738580413506
3.1788079470198674,0.2833499685693687
3.198675496688742,0.28191670988352596
3.218543046357616,0.2804023625329876
3.23841059602649,0.278812024967805
3.2582781456953644,0.27715113905138
3.2781456953642385,0.27542548690237917
3.2980132450331126,0.27364118664832876
3.3178807947019866,0.27180468688819326
3.3377483443708607,0.2699227596383439
3.3576158940397347,0.26800249151326494
3.3774834437086096,0.26605127287028435
3.3973509933774837,0.26407678462686435
3.4172185430463577,0.2620869824415991
3.437086092715232,0.26009007793728234
3.456953642384106,0.2580945166379652
3.47682119205298,0.256108952294456
3.4966887417218544,0.2541422172859657
3.5165562913907285,0.2522032888128851
3.5364238410596025,0.25030125063880027
3.556291390728477,0.24844525020169103
3.576158940397351,0.24664445099693447
3.596026490066225,0.24490798023899488
3.615894039735099,0.24324487193577762
3.6357615894039736,0.24166400565787163
3.6556291390728477,0.240174041452068
3.6754966887417218,0.23878335153032226
3.695364238410596,0.23749994955460152
3.7152317880794703,0.23633141852686437
3.7350993377483444,0.23528483847100412
3.754966887417219,0.23436671524824962
3.774834437086093,0.23358291196723657
3.794701986754967,0.2329385845225857
3.814569536423841,0.23243812281105808
3.834437086092715,0.2320850991250424
3.854304635761589,0.23188222510513046
3.8741721854304636,0.23183131844765903
3.8940397350993377,0.2319332803160141
3.9139072847682117,0.23218808410636627
3.9337748344370858,0.23259477588476182
3.9536423841059607,0.23315148646160444
3.9735099337748347,0.2338554547210615
3.993377483443709,0.23470306149602904
4.013245033112583,0.23568987299264255
4.033112582781457,0.23681069253454357
4.052980132450331,0.23805961922704408
4.072847682119205,0.23943011203934977
4.0927152317880795,0.2409150577681353
4.112582781456953,0.24250684137428594
4.132450331125828,0.24419741726754984
4.152317880794702,0.2459783802404403
4.172185430463576,0.24784103491157622
4.19205298013245,0.2497764627170306
4.211920529801325,0.25177558567536823
4.231788079470199,0.25382922633758354
4.251655629139073,0.2559281635094206
4.271523178807947,0.258063183494646
4.291390728476821,0.2602251267493465
4.311258278145695,0.26240492995767606
4.33112582781457,0.2645936636379015
4.3509933774834435,0.26678256546410417
4.370860927152318,0.2689630695466024
4.390728476821192,0.2711268319527524
4.410596026490066,0.2732657527744325
4.43046357615894,0.2753719950592911
4.450331125827815,0.27743800092375426
4.470198675496689,0.279456505158794
4.490066225165563,0.2814205466258197
4.509933774834438,0.283323477723077
4.529801324503311,0.28515897218254654
4.549668874172186,0.28692103143559655
4.569536423841059,0.28860398976378465
4.589403973509934,0.29020251842891376
4.6092715231788075,0.2917116289553539
4.629139072847682,0.29312667571755957
4.649006622516556,0.29444335796691723
4.66887417218543,0.2956577214147005
4.688741721854305,0.29676615947263285
4.708609271523179,0.29776541423769437
4.728476821192054,0.29865257729592926
4.748344370860927,0.2994250904080575
4.768211920529802,0.30008074613003155
4.788079470198675,0.30061768841269965
4.80794701986755,0.30103441321670094
4.827814569536423,0.3013297691717776
4.847682119205298,0.3015029583033571
4.867549668874172,0.30155353684319125
4.887417218543046,0.3014814161356441
4.9072847682119205,0.30128686364594004
4.927152317880794,0.30097050407144715
4.947019867549669,0.30053332055211934
4.966887417218543,0.29997665597067014
4.986754966887418,0.29930221432729764
5.006622516556291,0.29851206216759857
5.026490066225166,0.29760863003519766
5.04635761589404,0.2965947139127142
5.066225165562914,0.29547347660593465
5.086092715231788,0.2942484490156997
5.105960264900662,0.29292353123059844
5.125827814569536,0.29150299336048197
5.14569536423841,0.28999147601578074
5.1655629139072845,0.2883939903210858
5.185430463576159,0.28671591733281543
5.205298013245033,0.2849630067099372
5.225165562913908,0.2831413744642654
5.245033112582782,0.28125749959240476
5.264900662251656,0.27931821936504486
5.28476821192053,0.2773307230225228
5.304635761589404,0.2753025435972546
5.324503311258278,0.273241547556339
5.344370860927152,0.271155921931815
5.364238410596027,0.2690541585822378
5.3841059602649,0.26694503521145024
5.403973509933775,0.2648375927585958
5.4238410596026485,0.2627411087716191
5.443708609271523,0.26066506638678416
5.463576158940397,0.25861911856283976
5.483443708609272,0.25661304726324075
5.503311258278146,0.25465671734618817
5.52317880794702,0.2527600250137725
5.543046357615895,0.2509328407890662
5.562913907284768,0.24918494713523914
5.582781456953643,0.24752597100305304
5.602649006622516,0.2459653117885809
5.622516556291391,0.2445120653982413
5.642384105960264,0.2431749453442113
5.662251655629139,0.24196220202039442
5.682119205298013,0.24088154152404193
5.701986754966887,0.23994004557781837
5.7218543046357615,0.2391440942540297
5.741721854304636,0.23849929329448452
5.7615894039735105,0.23801040784095373
5.781456953642384,0.23768130433446724
5.801324503311259,0.23751490220112975
5.821192052980132,0.23751313671875127
5.841059602649007,0.23767693416107474
5.860927152317881,0.2380061999574193
5.880794701986755,0.23849982020461608
5.900662251655629,0.23915567644870617
5.920529801324503,0.23997067323989119
5.940397350993377,0.240940777580122
5.960264900662251,0.24206106904966693
5.980132450331126,0.2433257991339718
6.0,0.24472845808547714
6.0198675496688745,0.2462618475515601
6.039735099337749,0.24791815717788868
6.059602649006623,0.24968904344835016
6.079470198675497,0.2515657091383163
6.099337748344371,0.2535389819215949
6.119205298013245,0.2555993908705701
6.139072847682119,0.25773723980591295
6.158940397350993,0.2599426766760284
6.178807947019867,0.26220575836393434
6.198675496688741,0.2645165105226175
6.218543046357616,0.26686498222181776
6.23841059602649,0.26924129534693697
6.258278145695365,0.2716356888212703
6.2781456953642385,0.27403855782724484
6.298013245033113,0.2764404882814647
6.317880794701987,0.2788322868747118
6.337748344370861,0.2812050070241718
6.357615894039735,0.28354997110477276
6.377483443708609,0.28585878933203007
6.397350993377484,0.2881233756634038
6.417218543046357,0.29033596107192594
6.437086092715232,0.2924891045264854
6.456953642384105,0.29457570198990474
6.47682119205298,0.29658899372063197
6.496688741721854,0.2985225701375891
6.516556291390729,0.30037037648109566
6.5364238410596025,0.3021267164776835
6.556291390728477,0.30378625519192176
6.5761589403973515,0.3053440212260017
6.596026490066225,0.3067954084070287
6.6158940397351,0.3081361770828847
6.635761589403973,0.30936245513077415
6.655629139072848,0.3104707387671401
6.675496688741721,0.3114578932346414
6.695364238410596,0.31232115342954725
6.715231788079469,0.3130581245230762
6.735099337748344,0.3136667826207155
6.754966887417219,0.31414547549603306
6.774834437086093,0.314492923427866
6.794701986754967,0.31470822016437766
6.814569536423841,0.31479083403089436
6.8344370860927155,0.31474060919400815
6.854304635761589,0.31455776708906147
6.874172185430464,0.31424290801331145
6.894039735099337,0.3137970128823456
6.913907284768212,0.3132214451420275
6.933774834437086,0.3125179528225583
6.95364238410596,0.3116886707153299
6.973509933774834,0.3107361226460555
6.993377483443709,0.30966322380970784
7.013245033112583,0.3084732831236527
7.033112582781457,0.3071700055448266
7.052980132450331,0.3057574942843482
7.072847682119205,0.3042402528390234
7.0927152317880795,0.30262318674298505
7.112582781456954,0.30091160492403807
7.132450331125828,0.29911122052850075
7.152317880794702,0.297228151054693
7.172185430463576,0.29526891760895024
7.19205298013245,0.2932404430692759
7.211920529801324,0.29115004891041996
7.231788079470198,0.28900545041072145
7.251655629139073,0.2868147499261537
7.271523178807947,0.2845864278814201
7.291390728476822,0.2823293310928019
7.311258278145695,0.2800526580045181
7.33112582781457,0.27776594039156
7.3509933774834435,0.2754790210598488
7.370860927152318,0.2732020270622737
7.390728476821192,0.27094533795023956
7.410596026490066,0.26871954859868485
7.430463576158941,0.2665354261824734
7.450331125827814,0.2644038609477716
7.470198675496689,0.2623358105178842
7.490066225165562,0.2603422376018352
7.509933774834438,0.2584340411382869
7.52980132450331,0.25662198110725987
7.549668874172186,0.254916597475479
7.569536423841059,0.2533281240027418
7.589403973509934,0.25186639791820153
7.6092715231788075,0.2505407667639992
7.629139072847682,0.2493599939847642
7.649006622516557,0.24833216509507408
7.66887417218543,0.2474645964645525
7.6887417218543055,0.24676374890050629
7.708609271523178,0.24623514826286755
7.728476821192054,0.24588331530188115
7.748344370860927,0.24571170675670215
7.768211920529802,0.24572266949315827
7.788079470198675,0.24591740909898055
7.80794701986755,0.2462959739129757
7.827814569536423,0.24685725496375258
7.847682119205298,0.24759900176588234
7.8675496688741715,0.2485178533971161
7.887417218543046,0.24960938379397934
7.907284768211921,0.2508681597811408
7.927152317880795,0.25228781001641326
7.9470198675496695,0.2538611028015054
7.966887417218543,0.2555800305840915
7.986754966887418,0.25743589895797203
8.006622516556291,0.2594194180431651
8.026490066225167,0.26152079428284203
8.046357615894038,0.26372982090957564
8.066225165562914,0.2660359655891608
8.086092715231787,0.2684284540274957
8.105960264900663,0.2708963486071235
8.125827814569536,0.273428621389944
8.14569536423841,0.2760142210715628
8.165562913907285,0.2786421336922901
8.185430463576159,0.28130143709642963
8.205298013245034,0.2839813492832909
8.225165562913906,0.28667127091165095
8.245033112582782,0.2893608223059194
8.264900662251655,0.2920398753711752
8.28476821192053,0.2946985808588673
8.304635761589404,0.2973273914398645
8.324503311258278,0.2999170810405916
8.344370860927151,0.30245876088501833
8.364238410596027,0.3049438926633518
8.3841059602649,0.3073642992207802
8.403973509933774,0.3097121731279085
8.42384105960265,0.3119800834617043
8.443708609271523,0.314160981092356
8.463576158940398,0.3162482027385452
8.483443708609272,0.31823547402286534
8.503311258278146,0.32011691172997253
8.52317880794702,0.32188702544318104
8.543046357615895,0.3235407187113365
8.562913907284768,0.3250732898758134
8.582781456953642,0.3264804326683836
8.602649006622515,0.32775823667385645
8.62251655629139,0.3289031877362877
8.642384105960264,0.32991216837515086
8.66225165562914,0.33078245826653446
8.682119205298013,0.33151173483490554
8.701986754966887,0.3320980739929294
8.721854304635762,0.3325399510595926
8.741721854304636,0.33283624188079486
8.76158940397351,0.332986224171158
8.781456953642383,0.33298957909083077
8.801324503311259,0.3328463930664935
8.821192052980132,0.3325571598613709
8.841059602649008,0.3321227828947325
8.86092715231788,0.3315445778064261
8.880794701986755,0.3308242752571179
8.90066225165563,0.3299640239490166
8.920529801324504,0.3289663938454714
8.940397350993377,0.3278343795599223
8.960264900662251,0.32657140387583067
8.980132450331126,0.32518132134860256
9.0,0.3236684219278409
9.019867549668875,0.32203743452393396
9.039735099337747,0.32029353042536024
9.059602649006623,0.3184423264536218
9.079470198675496,0.3164898877193323
9.099337748344372,0.3144427298167407
9.119205298013245,0.31230782026411374
9.139072847682119,0.3100925789636612
9.158940397350994,0.3078048774174913
9.178807947019868,0.3054530363951739
9.198675496688743,0.303045821704808
9.218543046357615,0.3005924376727353
9.23841059602649,0.2981025178900661
9.258278145695364,0.2955861127363095
9.27814569536424,0.2930536731460004
9.298013245033111,0.2905160300442506
9.317880794701987,0.2879843688466936
9.33774834437086,0.2854701984012955
9.357615894039736,0.282985313749748
9.37748344370861,0.2805417521102512
9.397350993377483,0.27815174153688105
9.417218543046358,0.27582764180024405
9.437086092715232,0.27358187716452725
9.456953642384107,0.27142686091311186
9.47682119205298,0.26937491169973493
9.496688741721854,0.2674381620762289
9.516556291390728,0.26562845986610994
9.536423841059603,0.2639572634078586
9.556291390728477,0.2624355320694477
9.57615894039735,0.2610736138170398
9.596026490066224,0.25988113198304436
9.6158940397351,0.25886687369465256
9.635761589403973,0.2580386826644337
9.655629139072847,0.25740335918261487
9.675496688741722,0.25696657016200797
9.695364238410596,0.2567327719563917
9.715231788079471,0.25670514839282566
9.735099337748345,0.2568855660383519
9.754966887417218,0.2572745481759077
9.774834437086092,0.2578712683276151
9.794701986754967,0.25867356347359594
9.814569536423841,0.25967796641693497
9.834437086092716,0.260879756086304
9.854304635761588,0.26227302398863717
9.874172185430464,0.26385075455876067
9.894039735099337,0.2656049168236668
9.913907284768213,0.2675265646155102
9.933774834437086,0.26960594252825604
9.95364238410596,0.27183259490365214
9.973509933774835,0.2741954753324514
9.993377483443709,0.27668305444074687
10.013245033112582,0.27928342406941625
10.033112582781456,0.2819843963212583
10.052980132450331,0.2847735963205144
10.072847682119205,0.2876385478831412
10.09271523178808,0.29056675161929735
10.112582781456952,0.2935457552714914
10.132450331125828,0.2965632163285782
10.152317880794701,0.2996069571448838
10.172185430463577,0.3026650129377028
10.192052980132452,0.3057256731392695
10.211920529801324,0.308777516644721
10.2317880794702,0.3118094415333695
10.251655629139073,0.3148106898509247
10.271523178807948,0.31777086803107707
10.29139072847682,0.3206799635120885
10.311258278145695,0.3235283580701451
10.331125827814569,0.3263068383519467
10.350993377483444,0.32900660404553156
10.370860927152318,0.331619274084236
10.390728476821192,0.33413689123456586
10.410596026490065,0.33655192537711737
10.43046357615894,0.3388572757498261
10.450331125827816,0.34104627238709545
10.470198675496688,0.34311267695476183
10.490066225165563,0.34505068315208504
10.509933774834437,0.34685491682547787
