Frequency (Hz),Amplitude
0.0,2.1019101150577715
0.04,2.102029847376729
0.08,2.10238860095552
0.12,2.1029850477463694
0.16,2.10381698127387
0.19999999999999998,2.1048813269807
0.24,2.106174156591461
0.27999999999999997,2.107690706376761
0.32,2.1094253991693623
0.36,2.111371869956093
0.39999999999999997,2.11352299484401
0.44,2.115870923176933
0.48,2.1184071125596833
0.52,2.1211223665317442
0.5599999999999999,2.1240068746204153
0.6,2.127050254494949
0.64,2.130241595938677
0.6799999999999999,2.1335695063546316
0.72,2.137022157522068
0.76,2.14058733332616
0.7999999999999999,2.144252478190624
0.84,2.148004745953094
0.88,2.1518310489348997
0.9199999999999999,2.1557181069706997
0.96,2.159652496178497
1.0,2.1636206972665897
1.04,2.1676091431908864
1.0799999999999998,2.1716042659930848
1.1199999999999999,2.175592542667623
1.1600000000000001,2.179560539922231
1.2,2.183494957713887
1.24,2.187382671457861
1.28,2.191210772823131
1.3199999999999998,2.1949666090417876
1.3599999999999999,2.198637820673641
1.4,2.202212377779633
1.44,2.2056786144689196
1.48,2.2090252617946637
1.52,2.2122414789825484
1.5599999999999998,2.21531688298375
1.5999999999999999,2.2182415763508887
1.64,2.221006173440936
1.68,2.2236018249536698
1.72,2.226020240817695
1.76,2.228253711438663
1.7999999999999998,2.23029512732604
1.8399999999999999,2.2321379971156037
1.88,2.2337764640050146
1.92,2.2352053206192926
1.9599999999999997,2.2364200223218496
2.0,2.2374166989850433
2.0399999999999996,2.2381921652320753
2.08,2.238743929159448
2.12,2.239070199546228
2.1599999999999997,2.239169891553195
2.2,2.239042630911391
2.2399999999999998,2.238688756596019
2.28,2.2381093219777695
2.3200000000000003,2.2373060944398655
2.36,2.236281553445261
2.4,2.2350388870346074
2.44,2.233581986731902
2.48,2.2319154408312545
2.5199999999999996,2.230044526034981
2.56,2.2279751974101125
2.6,2.2257140766280954
2.6399999999999997,2.2232684384501584
2.68,2.2206461954194032
2.7199999999999998,2.2178558807197
2.76,2.214906629161347
2.8,2.211808156254076
2.84,2.208570735329527
2.88,2.205205172677952
2.92,2.2017227806675517
2.96,2.1981353488197186
2.9999999999999996,2.194455112819763
3.04,2.190694721450104
3.08,2.1868672014421136
3.1199999999999997,2.1829859202531203
3.16,2.17906454678734
3.1999999999999997,2.1751170100930457
3.2399999999999998,2.1711574560834923
3.28,2.167200202345911
3.32,2.1632596911210147
3.36,2.1593504405550314
3.4,2.155486994347049
3.44,2.1516838699361798
3.4799999999999995,2.1479555053956
3.52,2.1443162052236473
3.5599999999999996,2.1407800852451806
3.5999999999999996,2.1373610168596207
3.64,2.1340725708943786
3.6799999999999997,2.130927961343694
3.7199999999999998,2.127939989292944
3.76,2.1251209873460013
3.7999999999999994,2.122482764888938
3.84,2.120036554535531
3.88,2.117792960109059
3.9199999999999995,2.115761906520176
3.96,2.1139525919013966
4.0,2.1123734423554525
4.04,2.1110320696662757
4.079999999999999,2.1099352323086267
4.12,2.1090888000741392
4.16,2.1084977226092514
4.199999999999999,2.1081660021329474
4.24,2.108096670571086
4.28,2.10829177130864
4.319999999999999,2.108752345722724
4.36,2.10947842461815
4.4,2.110469024643971
4.4399999999999995,2.111722149725131
4.4799999999999995,2.1132347974985546
4.5200000000000005,2.1150029706982996
4.56,2.117021693391208
4.6,2.1192850319226872
4.640000000000001,2.121786120393406
4.68,2.1245171904517086
4.72,2.1274696051543853
4.76,2.130633896620325
4.8,2.1339998071780717
4.84,2.137556333689017
4.88,2.141291774714144
4.92,2.1451937801822276
4.96,2.1492494032129454
5.0,2.1534451537475836
5.039999999999999,2.157767053643814
5.08,2.1622006928984114
5.12,2.166731286672672
5.159999999999999,2.171343732808956
5.2,2.1760226695430465
5.24,2.1807525331353674
5.279999999999999,2.185517615163675
5.319999999999999,2.1903021192408954
5.36,2.195090216943179
5.3999999999999995,2.199866102754966
5.4399999999999995,2.204614047859665
5.48,2.209318452625578
5.52,2.213963897657263
5.56,2.218535193302182
5.6,2.2230174275207046
5.64,2.227396012044806
5.68,2.2316567267664635
5.72,2.2357857623110218
5.76,2.2397697607634526
5.8,2.2435958545267236
5.84,2.2472517033010835
5.879999999999999,2.2507255291812673
5.92,2.2540061498752952
5.96,2.2570830100539516
5.999999999999999,2.25994621084391
6.04,2.262586537480344
6.08,2.2649954851363794
6.119999999999999,2.2671652829472757
6.16,2.2690889162466745
6.2,2.2707601470310257
6.239999999999999,2.2721735326657337
6.279999999999999,2.2733244428439288
6.32,2.2742090748048067
6.359999999999999,2.274824466814302
6.3999999999999995,2.275168509906099
6.44,2.275239957875467
6.4799999999999995,2.275038435513048
6.52,2.2745644450593647
6.56,2.273819370854737
6.6,2.2728054821528167
6.64,2.2715259340591665
6.68,2.269984766549907
6.72,2.2681869015186553
6.76,2.2661381377936016
6.8,2.2638451440602787
6.84,2.2613154496196466
6.88,2.2585574329056737
6.92,2.2555803076816803
6.959999999999999,2.252394106830536
7.0,2.249009663650523
7.04,2.2454385905664034
7.08,2.241693255164291
7.119999999999999,2.237786753459161
7.16,2.233732880306051
7.199999999999999,2.2295460968696768
7.239999999999999,2.2252414950732025
7.28,2.220834758955
7.32,2.2163421228728466
7.359999999999999,2.21178032650828
7.3999999999999995,2.2071665666400118
7.4399999999999995,2.202518445674243
7.4799999999999995,2.197853916942104
7.52,2.1931912267996023
7.5600000000000005,2.188548853594161
7.599999999999999,2.1839454435932066
7.64,2.1793997440051154
7.68,2.1749305332597464
7.719999999999999,2.1705565487558616
7.76,2.1662964123239425
7.800000000000001,2.1621685536963153
7.839999999999999,2.1581911323199
7.88,2.15438195789099
7.92,2.150758410034118
7.959999999999999,2.1473373575882557
8.0,2.1441350780018453
8.040000000000001,2.1411671773725396
8.08,2.138448511696977
8.12,2.135993109919428
8.159999999999998,2.133814099384588
8.2,2.131923634308517
8.24,2.1303328278816767
8.28,2.1290516886088224
8.32,2.1280890614716235
8.36,2.127452574471383
8.399999999999999,2.1271485910708177
8.44,2.12718216900632
8.48,2.1275570258858845
8.52,2.128275511923711
8.56,2.1293385900918174
8.6,2.1307458238930077
8.639999999999999,2.1324953728795415
8.68,2.134583995960016
8.72,2.137007062454368
8.76,2.139758570775655
8.8,2.142831174539039
8.84,2.146216215824409
8.879999999999999,2.1499037652511763
8.92,2.153882668462794
8.959999999999999,2.1581405985658497
9.0,2.162664114024443
9.040000000000001,2.167438721475921
9.079999999999998,2.172448942908848
9.12,2.177678386628264
9.16,2.183109821426763
9.2,2.1887252533818824
9.24,2.1945060047106595
9.280000000000001,2.200432794129194
9.32,2.206485818188893
9.36,2.212644833089806
9.399999999999999,2.2188892365047175
9.44,2.225198148983965
9.48,2.231550494549781
9.52,2.237925080128828
9.559999999999999,2.2443006735122815
9.6,2.250656079572872
9.639999999999999,2.2569702145076485
9.68,2.2632221779129384
9.72,2.2693913225336164
9.76,2.275457321562189
9.8,2.2814002333938825
9.84,2.287200563771667
9.879999999999999,2.292839325280138
9.92,2.298298094168976
9.959999999999999,2.3035590645057082
10.0,2.308605099673372
10.04,2.313419781242006
10.079999999999998,2.3179874552533133
10.12,2.322293275965903
10.16,2.3263232471140443
10.2,2.3300642607364663
10.24,2.3335041336330633
10.280000000000001,2.336631641506935
10.319999999999999,2.339436550847219
10.36,2.341909648604445
10.4,2.3440427697052115
10.44,2.3458288224466837
10.48,2.347261811804125
10.52,2.3483368606761372
10.559999999999999,2.349050229083089
10.6,2.349399331323907
10.639999999999999,2.3493827510855927
10.68,2.3490002544880277
10.72,2.3482528010345103
10.76,2.3471425524255207
10.799999999999999,2.345672879179906
10.84,2.343848364993991
10.879999999999999,2.341674808754786
10.92,2.3391592241094865
10.96,2.336309836478476
11.0,2.3331360773850207
11.04,2.3296485759600207
11.08,2.325859147466499
11.12,2.3217807786747673
11.16,2.3174276099066207
11.2,2.3128149135552363
11.24,2.307959068877342
11.28,2.302877532845773
11.319999999999999,2.2975888068445474
11.36,2.2921123989850742
11.4,2.2864687818221223
11.44,2.280679345251819
11.48,2.2747663443820105
11.52,2.2687528421785355
11.559999999999999,2.2626626467096767
11.6,2.256520242836006
11.64,2.2503507182247438
11.68,2.2441796836067844
11.72,2.238033187241387
11.759999999999998,2.2319376236083053
11.799999999999999,2.2259196364100475
11.84,2.220006016037815
11.879999999999999,2.214223591733232
11.92,2.2085991187635
11.96,2.203159161019311
11.999999999999998,2.1979299695412786
12.04,2.1929373575804214
12.08,2.1882065728990985
12.12,2.1837621681187764
12.16,2.179627870017294
12.200000000000001,2.1758264487681744
12.239999999999998,2.1723795881950747
12.28,2.1693077581825686
12.32,2.1666300904371636
12.36,2.1643642588271215
12.4,2.16252636554363
12.44,2.1611308343172624
12.479999999999999,2.160190311891095
12.52,2.1597155788945868
12.559999999999999,2.159715471180225
12.6,2.1601968125793563
12.64,2.161164359905886
12.68,2.1626207608892365
12.719999999999999,2.164566525554928
12.76,2.1670000113955146
12.799999999999999,2.169917422491527
12.84,2.17331282255588
12.88,2.17717816169092
12.92,2.181503316469392
12.959999999999999,2.186276142784007
12.999999999999998,2.1914825407584995
13.04,2.197106530879708
13.08,2.203130340397958
13.12,2.209534498953435
13.16,2.2162979423207414
13.2,2.223398123122143
13.239999999999998,2.2308111273419406
13.28,2.238511795478437
13.32,2.246473847194342
13.36,2.254670008369004
13.4,2.263072139513643
13.44,2.27165136458122
13.479999999999999,2.2803781992830583
13.52,2.289222678111183
13.559999999999999,2.2981544793569126
13.6,2.3071430475093733
13.64,2.3161577125100803
13.68,2.3251678054301212
13.719999999999999,2.3341427702227096
13.76,2.343052271284895
13.799999999999999,2.351866296637054
13.84,2.360555256596862
13.88,2.3690900778851427
13.919999999999998,2.37744229315446
13.959999999999999,2.3855841259772204
14.0,2.393488571369108
14.04,2.401129471955484
14.08,2.4084815899141683
14.120000000000001,2.4155206748474907
14.16,2.4222235277508886
14.2,2.4285680612542864
14.239999999999998,2.4345333563177665
14.28,2.440099715563616
14.32,2.4452487134246064
14.36,2.449963243282815
14.399999999999999,2.4542275617652622
14.44,2.4580273303522215
14.479999999999999,2.461349654441847
14.52,2.4641831200006727
14.56,2.4665178279139397
14.6,2.4683454261327773
14.64,2.469659139697016
14.68,2.470453798692956
14.719999999999999,2.4707258641848258
14.76,2.470473452136805
14.799999999999999,2.4696963553196216
14.84,2.4683960631713746
14.879999999999999,2.4665757795569214
14.919999999999998,2.464240438343137
14.959999999999999,2.4613967166792454
15.0,2.4580530458416563
15.04,2.4542196194715133
15.079999999999998,2.449908399000518
15.120000000000001,2.445133116026348
15.159999999999998,2.4399092713634807
15.199999999999998,2.4342541304584397
15.24,2.4281867148207295
15.28,2.421727789082263
15.319999999999999,2.4148998432596036
15.36,2.4077270697550612
15.399999999999999,2.400235334595768
15.439999999999998,2.3924521423750553
15.48,2.3844065943286785
15.52,2.3761293389517237
15.559999999999999,2.3676525145409912
15.600000000000001,2.3590096830349765
15.639999999999999,2.350235754520618
15.679999999999998,2.3413669017852614
15.72,2.3324404643160417
15.76,2.3234948411895853
15.799999999999999,2.3145693723547844
15.84,2.305704207893309
15.879999999999999,2.2969401649478587
15.919999999999998,2.288318572139504
15.96,2.2798811014533165
16.0,2.271669587757
16.04,2.263725836329394
16.080000000000002,2.256091419013566
16.12,2.248807459869186
16.16,2.241914411477519
16.200000000000003,2.235451823343028
16.24,2.2294581041314223
16.279999999999998,2.223970279776015
16.319999999999997,2.219023749762159
16.36,2.214652044152592
16.4,2.210886584132807
16.439999999999998,2.2077564490237123
16.48,2.2052881528178134
16.52,2.203505433335519
16.56,2.2024290570620857
16.6,2.202076642608831
16.64,2.202462505542209
16.68,2.2035975270439327
16.72,2.205489048509469
16.759999999999998,2.208140793770709
16.799999999999997,2.211552820154143
16.84,2.2157214990736116
16.88,2.2206395263242773
16.919999999999998,2.2262959617101696
16.96,2.2326762971201592
17.0,2.2397625516834005
17.04,2.247533392201384
17.080000000000002,2.255964276681951
17.12,2.2650276185006217
17.16,2.274692968492598
17.2,2.284927212136688
17.24,2.2956947789290294
17.279999999999998,2.306957861055988
17.32,2.318676638554101
17.36,2.3308095082823757
17.4,2.34331331421789
17.44,2.356143576808539
17.48,2.3692547193662974
17.52,2.382600289749509
17.56,2.3961331758542923
17.6,2.4098058137043123
17.64,2.4235703871881302
17.68,2.4373790187381177
17.72,2.451183950470434
17.759999999999998,2.4649377155089276
17.799999999999997,2.4785932993952464
17.84,2.492104291642385
17.88,2.505425027619555
17.919999999999998,2.518510721063671
17.96,2.5313175875983425
18.0,2.543802959706695
18.04,2.5559253936521023
18.080000000000002,2.5676447688726087
18.12,2.578922380393063
18.159999999999997,2.589721024805544
18.2,2.6000050803657455
18.24,2.6097405817421038
18.279999999999998,2.61889528993758
18.32,2.6274387578821248
18.36,2.6353423921686154
18.4,2.642579511377014
18.44,2.6491254014018706
18.48,2.654957368167521
18.52,2.6600547880838072
18.560000000000002,2.664399156563454
18.6,2.6679741348903327
18.64,2.6707655956959484
18.679999999999996,2.6727616672693877
18.72,2.6739527768936964
18.759999999999998,2.6743316933689125
18.799999999999997,2.673893568848402
18.84,2.6726359800800847
18.88,2.670558969107944
18.919999999999998,2.6676650834500526
18.96,2.6639594157277893
19.0,2.6594496426754874
19.04,2.6541460634101273
19.080000000000002,2.648061636785741
19.119999999999997,2.6412120175964295
19.159999999999997,2.6336155913241073
19.2,2.6252935070515258
19.24,2.6162697080770942
19.279999999999998,2.6065709596743676
19.32,2.596226873335275
19.36,2.585269926721812
19.4,2.5737354784254154
19.44,2.5616617764968224
19.48,2.549089959562086
19.52,2.536064049184331
19.560000000000002,2.5226309319662694
19.6,2.508840329719789
19.639999999999997,2.494744755858365
19.68,2.4803994560017775
19.72,2.465862330626589
19.759999999999998,2.45119383745866
19.8,2.436456871195353
19.84,2.421716618076965
19.88,2.4070403828129883
19.919999999999998,2.392497385423805
19.96,2.3781585256991757
20.0,2.3640961132172458
20.04,2.3503835612291515
20.08,2.3370950432077273
20.119999999999997,2.3243051114971287
20.159999999999997,2.3120882782884817
20.2,2.3005185600847606
20.24,2.289668987896594
20.279999999999998,2.2796110866089183
20.32,2.27041432824423
20.36,2.262145565177024
20.4,2.254868450668393
20.44,2.248642855322611
20.48,2.243524289143877
20.52,2.239563339713964
20.560000000000002,2.236805137545842
20.599999999999998,2.2352888598297356
20.639999999999997,2.2350472835284836
20.68,2.236106398073138
20.72,2.2384850867586508
20.759999999999998,2.242194884376338
20.8,2.2472398167045267
20.84,2.253616325300272
20.88,2.2613132787006505
20.92,2.270312068771765
20.96,2.280586788659232
21.0,2.292104486709743
21.04,2.3048254889465043
21.08,2.3187037812663847
21.119999999999997,2.3336874415284603
21.159999999999997,2.34971911113959
21.2,2.3667364956005397
21.24,2.3846728837209468
21.279999999999998,2.403457675788286
21.32,2.423016911818991
21.36,2.4432737920564596
21.4,2.464149183038587
21.44,2.485562103769707
21.48,2.507430187739464
21.52,2.529670117686051
21.56,2.552198031067083
21.599999999999998,2.5749298951528665
21.639999999999997,2.5977818514794464
21.68,2.6206705300870476
21.72,2.6435133345252306
21.759999999999998,2.6662286990363047
21.8,2.6887363196447067
21.84,2.710957361095493
21.88,2.73281464171438
21.92,2.7542327983195127
21.96,2.775138433315566
22.0,2.7954602460565283
22.04,2.815129150486309
22.08,2.8340783809662113
22.119999999999997,2.8522435880835113
22.16,2.8695629261128097
22.2,2.8859771336776725
22.24,2.901429609037515
22.28,2.9158664813083357
22.32,2.929236678817015
22.36,2.941491995690027
22.4,2.952587157688835
22.44,2.9624798882273264
22.48,2.9711309754407966
22.519999999999996,2.9785043411218206
22.56,2.9845671122951893
22.599999999999998,2.9892896961716127
22.639999999999997,2.9926458591972462
22.68,2.994612810903239
22.72,2.995171293254734
22.759999999999998,2.9943056762017966
22.8,2.992004060144287
22.84,2.9882583860374585
22.88,2.9830645538834757
22.92,2.976422550374572
22.96,2.9683365864734603
23.0,2.9588152457338244
23.04,2.947871644173837
23.08,2.935523602515577
23.119999999999997,2.9217938315861725
23.16,2.906710131637207
23.2,2.8903056062678374
23.24,2.8726188915247497
23.28,2.853694400585231
23.32,2.833582584193753
23.36,2.8123402066979386
23.400000000000002,2.7900306370956836
23.44,2.7667241539350176
23.479999999999997,2.7424982621727505
23.519999999999996,2.7174380191631524
23.56,2.691636365778132
23.599999999999998,2.665194457216608
23.639999999999997,2.638221986306634
23.68,2.6108374900054634
23.72,2.583168627338681
23.759999999999998,2.5553524141841946
23.8,2.527535397125295
23.84,2.499873745135039
23.88,2.4725332342368835
23.92,2.4456890967147227
23.96,2.4195257032149575
23.999999999999996,2.3942360435977745
24.04,2.3700209711742257
24.08,2.347088175633681
24.119999999999997,2.3256508532208326
24.16,2.3059260492655573
24.2,2.288132658612524
24.24,2.2724890842117174
24.28,2.259210573085806
24.32,2.2485062714805757
24.36,2.2405760659212377
24.400000000000002,2.235607302083669
24.439999999999998,2.2337714961401254
24.479999999999997,2.23522117047283
24.52,2.2400869543535626
24.56,2.248475087974806
24.599999999999998,2.260465453879789
24.64,2.2761102337599652
24.68,2.2954332528794734
24.72,2.3184300326632736
24.759999999999998,2.3450685288125976
24.8,2.3752904924263953
24.84,2.4090133591172633
24.88,2.4461325488492114
24.92,2.486524048411383
24.959999999999997,2.5300471486889027
24.999999999999996,2.576547218506475
25.04,2.6258584132899103
25.08,2.677806237308159
25.119999999999997,2.7322099001787197
25.16,2.788884429470643
25.2,2.847642520078136
25.24,2.908296116662942
25.28,2.97065773753344
25.32,3.03454155692858
25.36,3.099764268171572
25.4,3.166145753069437
25.439999999999998,3.233509583825242
25.479999999999997,3.301683383142646
25.52,3.370499066613946
25.56,3.439792989285867
25.599999999999998,3.509406015796283
25.64,3.579183530893134
25.68,3.6489754046377345
25.72,3.71863592425654
25.76,3.7880237024930534
25.8,3.857001570449443
25.84,3.925436461297692
25.880000000000003,3.9931992898716913
25.919999999999998,4.060164832005395
25.959999999999997,4.126211606533554
25.999999999999996,4.191221762096756
26.04,4.255080970266017
26.08,4.317678326001839
26.119999999999997,4.378906256067726
26.16,4.438660435709934
26.2,4.496839713678739
26.24,4.553346045487433
26.28,4.608084434673288
26.32,4.660962881729321
26.36,4.711892340310227
26.4,4.760786680272999
26.439999999999998,4.807562657088085
26.479999999999997,4.852139887145779
26.52,4.894440828481899
26.56,4.934390766453899
26.599999999999998,4.971917803911207
26.64,5.006952855420334
26.68,5.039429645124802
26.72,5.069284707841102
26.76,5.096457393014182
26.8,5.120889871178757
26.84,5.142527142595413
26.88,5.1613170477532835
26.919999999999998,5.177210279453191
26.959999999999997,5.190160396206986
27.0,5.200123836710083
27.04,5.207059935164818
27.08,5.210930937252707
27.119999999999997,5.211702016573388
27.16,5.209341291387695
27.2,5.203819841521927
27.24,5.195111725309606
27.28,5.1831939964671765
27.32,5.168046720820033
27.36,5.1496529928165256
27.4,5.12799895178967
27.439999999999998,5.103073797949858
27.479999999999997,5.0748698081175165
27.52,5.043382351232661
27.56,5.00860990370946
27.599999999999998,4.970554064739021
27.64,4.92921957168361
27.68,4.884614315751376
27.72,4.836749358194383
27.76,4.785638947335249
27.8,4.7313005368020935
27.839999999999996,4.67375480544003
27.88,4.613025679473581
27.919999999999998,4.549140357623358
27.959999999999997,4.4821293400363675
28.0,4.412026462081432
28.04,4.338868934297165
28.08,4.262697390073119
28.12,4.183555943010036
28.16,4.101492256363956
28.2,4.016557627558669
28.240000000000002,3.92880709148747
28.28,3.838299547268519
28.32,3.745097914332947
28.359999999999996,3.649269325302089
28.4,3.550885365171974
28.439999999999998,3.450022369040183
