Time (s),Filtered Signal
0.0,-0.011494490944968808
0.0334075723830735,-0.10455679677890373
0.066815144766147,-0.21073412742016182
0.1002227171492205,-0.3316997499965839
0.133630289532294,-0.451878173665369
0.1670378619153675,-0.5427584488064917
0.200445434298441,-0.5749079432146706
0.23385300668151449,-0.5317372612945129
0.267260579064588,-0.4181790863073039
0.3006681514476615,-0.26005778031360793
0.334075723830735,-0.09459174730831785
0.3674832962138085,0.043289621120127714
0.400890868596882,0.1324713972519597
0.4342984409799555,0.17027797311834983
0.46770601336302897,0.1692083809434956
0.5011135857461025,0.14851739317635446
0.534521158129176,0.12515830647445209
0.5679287305122495,0.10790470639892132
0.601336302895323,0.09623764492930881
0.6347438752783965,0.08334996523803509
0.66815144766147,0.061384577320292066
0.7015590200445435,0.026823699601520524
0.734966592427617,-0.015754215351949374
0.7683741648106905,-0.05294351118013606
0.801781737193764,-0.06565711160147696
0.8351893095768375,-0.03598169127917825
0.868596881959911,0.043999730480563715
0.9020044543429845,0.16478247465352067
0.9354120267260579,0.2974403511911615
0.9688195991091315,0.3998290003936829
1.002227171492205,0.4304749229526745
1.0356347438752784,0.36549284256792064
1.069042316258352,0.21112714391516782
1.1024498886414256,0.005209421963321053
1.135857461024499,-0.1946808289367338
1.1692650334075725,-0.33225481877364604
1.202672605790646,-0.3739036002075757
1.2360801781737194,-0.3210912650101582
1.269487750556793,-0.20844872681633736
1.3028953229398665,-0.08864898987057192
1.33630289532294,-0.010708033516949711
1.3697104677060135,-0.0007868560828222909
1.403118040089087,-0.053251089079007045
1.4365256124721606,-0.13547989224113638
1.469933184855234,-0.2042995784212798
1.5033407572383075,-0.22691058486666058
1.536748329621381,-0.19678275184516492
1.5701559020044544,-0.13663284717449067
1.603563474387528,-0.08620012872463045
1.6369710467706016,-0.07999864079246034
1.670378619153675,-0.1259605564282055
1.7037861915367485,-0.19653674078025177
1.737193763919822,-0.23832289754612426
1.7706013363028954,-0.19692993494403188
1.804008908685969,-0.04542395753252586
1.8374164810690425,0.1980237180477841
1.8708240534521159,0.4727701377880056
1.9042316258351895,0.6980731738212989
1.937639198218263,0.8048351683985586
1.9710467706013366,0.7620278106593404
2.00445434298441,0.5863797637134792
2.0378619153674835,0.33256526673050446
2.071269487750557,0.07020787858223412
2.1046770601336307,-0.14111393773317657
2.138084632516704,-0.26872239445030716
2.1714922048997773,-0.3107561391725025
2.204899777282851,-0.2885686086841552
2.2383073496659245,-0.23318338428275548
2.271714922048998,-0.17227698284749382
2.3051224944320716,-0.12236910664076367
2.338530066815145,-0.0878655476589319
2.3719376391982183,-0.06568840484427033
2.405345211581292,-0.052261404075335555
2.4387527839643655,-0.048931052133262716
2.472160356347439,-0.06263545756757687
2.5055679287305126,-0.10078352727933776
2.538975501113586,-0.16242630423380255
2.5723830734966593,-0.23065855768940846
2.605790645879733,-0.2720321848424887
2.6391982182628064,-0.24634167916565902
2.67260579064588,-0.12487619563780154
2.7060133630289536,0.09044278635127816
2.739420935412027,0.35730450157343063
2.7728285077951007,0.6002505668886952
2.806236080178174,0.7350203367428289
2.8396436525612474,0.70122454077856
2.873051224944321,0.4891323552369065
2.9064587973273945,0.14772399246595977
2.939866369710468,-0.23085509551641395
2.9732739420935417,-0.5445379233625509
3.006681514476615,-0.7182593158933493
3.0400890868596884,-0.7291003049820817
3.073496659242762,-0.6099297498404493
3.1069042316258355,-0.4316032200410139
3.140311804008909,-0.27273527651122165
3.1737193763919826,-0.19018866870557674
3.207126948775056,-0.20147227413185045
3.2405345211581293,-0.28392926764264614
3.273942093541203,-0.38832058293264815
3.3073496659242765,-0.45935784847851824
3.34075723830735,-0.4545316533769995
3.3741648106904236,-0.3549355894600683
3.407572383073497,-0.16610173387099197
3.4409799554565703,0.08886577241862283
3.474387527839644,0.37897948740148757
3.5077951002227175,0.6729148113954554
3.541202672605791,0.9417316748622385
3.5746102449888646,1.1576261204203384
3.608017817371938,1.292494537381442
3.6414253897550113,1.3205234057073576
3.674832962138085,1.2262004811592873
3.7082405345211584,1.014412931994872
3.7416481069042318,0.7157813700652765
3.7750556792873056,0.38115747809388434
3.808463251670379,0.06491364796539224
3.8418708240534527,-0.19572156008671002
3.875278396436526,-0.3937024832209151
3.9086859688195994,-0.548879107709404
3.942093541202673,-0.6890300475642431
3.9755011135857465,-0.826033898070849
4.00890868596882,-0.9420338036338997
4.042316258351893,-0.9951201016258537
4.075723830734967,-0.942415897253704
4.109131403118041,-0.7678145815820165
4.142538975501114,-0.4985189661653628
4.1759465478841875,-0.20054629370715846
4.209354120267261,0.04536928731368685
4.242761692650334,0.17592308137284737
4.276169265033408,0.1700512467374881
4.309576837416482,0.05498374471607456
4.342984409799555,-0.10853323145351841
4.3763919821826285,-0.25397330289382153
4.409799554565702,-0.33612841616307443
4.443207126948775,-0.3450604121325804
4.476614699331849,-0.30152760093114445
4.510022271714923,-0.23800618220540196
4.543429844097996,-0.1765044269870133
4.5768374164810695,-0.11549029173352153
4.610244988864143,-0.03293309317888306
4.643652561247216,0.09646979575210682
4.67706013363029,0.27966975867775473
4.710467706013364,0.4917446664135988
4.743875278396437,0.6791325756191069
4.77728285077951,0.7798064363563789
4.810690423162584,0.7517016865294324
4.844097995545657,0.5958603542554206
4.877505567928731,0.3624149566050772
4.910913140311805,0.13503899826921492
4.944320712694878,-0.0006600360010932882
4.977728285077951,0.008217576660797423
5.011135857461025,0.1589020377001632
5.044543429844098,0.3914848491214001
5.077951002227172,0.6096608027663293
5.111358574610246,0.7153749047522874
5.144766146993319,0.6440099249757338
5.178173719376392,0.387332179153444
5.211581291759466,-0.003344758820625837
5.244988864142539,-0.43402360000240403
5.278396436525613,-0.7985269600032002
5.311804008908687,-1.0121403117799994
5.34521158129176,-1.0371655275894966
5.378619153674833,-0.8919206123432999
5.412026726057907,-0.6403517705559953
5.445434298440981,-0.3663678505791925
5.478841870824054,-0.14285451050944079
5.512249443207128,-0.007548570859626206
5.545657015590201,0.044846101547499184
5.579064587973274,0.05196018608037473
5.612472160356348,0.06040404897033486
5.645879732739422,0.10120634569279598
5.679287305122495,0.17546349993575241
5.712694877505569,0.2560784424545322
5.746102449888642,0.3034102875104385
5.779510022271715,0.2862724461881723
5.812917594654789,0.19799758845550894
5.846325167037863,0.060549565826595285
5.879732739420936,-0.08425162922327674
5.91314031180401,-0.19158044044703915
5.946547884187083,-0.23079908095519966
5.979955456570156,-0.1959555689037852
6.01336302895323,-0.10598998595711037
6.046770601336304,0.004506302943604828
6.080178173719377,0.09944499521803768
6.1135857461024505,0.15410327444702393
6.146993318485524,0.16142176463477995
6.180400890868597,0.1297176968817872
6.213808463251671,0.07403365605644806
6.247216035634745,0.006497566068669555
6.280623608017818,-0.06866921248413835
6.3140311804008915,-0.15283027672496396
6.347438752783965,-0.24525042399873795
6.380846325167038,-0.3355488729201008
6.414253897550112,-0.40204332524548503
6.447661469933186,-0.4183646162632922
6.481069042316259,-0.36557316108566684
6.5144766146993325,-0.24313240533697367
6.547884187082406,-0.07196819583413297
6.581291759465479,0.11315542233589079
6.614699331848553,0.2786675903668622
6.648106904231627,0.40671597635666973
6.6815144766147,0.50090854508232
6.7149220489977735,0.579468086817965
6.748329621380847,0.659098294889215
6.78173719376392,0.738666554162854
6.815144766146994,0.7927879292476757
6.848552338530068,0.7805116802737613
6.881959910913141,0.6659238436473636
6.915367483296214,0.4402837457484836
6.948775055679288,0.13366046337879953
6.982182628062361,-0.1908448149727358
7.015590200445435,-0.4581686480864436
7.048997772828509,-0.6078095539891919
7.082405345211582,-0.6138738808851056
7.115812917594655,-0.4909509643019475
7.149220489977729,-0.28563274448329906
7.182628062360802,-0.059685199562183856
7.216035634743876,0.12732116478742256
7.24944320712695,0.23059888146915716
7.282850779510023,0.2267284577079879
7.316258351893096,0.11572189350132704
7.34966592427617,-0.07993701712549321
7.383073496659243,-0.31940973125747335
7.416481069042317,-0.5519404987656198
7.449888641425391,-0.7295979089223232
7.4832962138084635,-0.8212733473720722
7.516703786191537,-0.8222208722054059
7.550111358574611,-0.7536784901348639
7.583518930957685,-0.6512169271341884
7.616926503340758,-0.5466182135802988
7.650334075723832,-0.4525368610106097
7.683741648106905,-0.3586220241742395
7.717149220489978,-0.24176485279935636
7.750556792873052,-0.08486960337543065
7.783964365256126,0.10696109975654725
7.817371937639199,0.3030519509045837
7.850779510022273,0.4597303017841246
7.884187082405346,0.5427268293225246
7.917594654788419,0.5472360978284581
7.951002227171493,0.5041490172719574
7.984409799554567,0.467979258078215
8.01781737193764,0.4914892441162156
8.051224944320714,0.5989610207849125
8.084632516703786,0.7709971967597875
8.118040089086861,0.9484220079284998
8.151447661469934,1.0540907527784613
8.184855233853007,1.0234589166749177
8.218262806236082,0.8311618294562947
8.251670378619155,0.5028831181456626
8.285077951002227,0.10811908662068476
8.318485523385302,-0.262913037191167
8.351893095768375,-0.5291549556065666
8.385300668151448,-0.6443195747315291
8.418708240534523,-0.6093800824007508
8.452115812917596,-0.46832525024265065
8.485523385300668,-0.28978759793791264
8.518930957683743,-0.14206683363696407
8.552338530066816,-0.0709564144807737
8.585746102449889,-0.08806233256132047
8.619153674832964,-0.1727961179329707
8.652561247216036,-0.285798262890386
8.68596881959911,-0.3873306873526197
8.719376391982184,-0.452714628968852
8.752783964365257,-0.47865337788907314
8.78619153674833,-0.4785557262126916
8.819599109131405,-0.47004742538610517
8.853006681514477,-0.46149262486222675
8.88641425389755,-0.444716360200307
8.919821826280625,-0.3978627629009144
8.953229398663698,-0.2970204094859794
8.98663697104677,-0.13069364631809285
9.020044543429846,0.09020797550598252
9.053452115812918,0.3318821226283147
9.086859688195991,0.5471138555767693
9.120267260579066,0.6908139849301028
9.153674832962139,0.7354069913400012
9.187082405345212,0.6801863851032836
9.220489977728286,0.5511127880619512
9.25389755011136,0.3909076066851088
9.287305122494432,0.24275706025795715
9.320712694877507,0.1336014697972043
9.35412026726058,0.06384153783080287
9.387527839643653,0.0084819364802977
9.420935412026727,-0.06972612529236787
9.4543429844098,-0.2001563120139437
9.487750556792873,-0.386173736646882
9.521158129175948,-0.5978641404571902
9.55456570155902,-0.779795944164016
9.587973273942094,-0.8708914120310841
9.621380846325168,-0.8278055825095664
9.654788418708241,-0.6420375242508024
9.688195991091314,-0.3446258930256771
9.721603563474389,0.0019307267169819647
9.755011135857462,0.3204784450253221
9.788418708240535,0.5394519437787547
9.82182628062361,0.6122414137110107
9.855233853006682,0.532225095881847
9.888641425389755,0.3395609550695376
9.92204899777283,0.11525516559887782
9.955456570155903,-0.040152638894044565
9.988864142538976,-0.04035173404590284
10.02227171492205,0.15106951481272268
10.055679287305123,0.49854927913107444
10.089086859688196,0.8992062448061108
10.12249443207127,1.2166805942936534
10.155902004454344,1.3322295208247095
10.189309576837417,1.1911022508292617
10.222717149220491,0.823018654183539
10.256124721603564,0.3275942152843026
10.289532293986637,-0.16757253652317697
10.322939866369712,-0.555947424619997
10.356347438752785,-0.7863850510584931
10.389755011135858,-0.8700564633310378
10.423162583518932,-0.861460931170401
10.456570155902005,-0.8263372368674374
10.489977728285078,-0.8126117384138776
10.523385300668153,-0.835625019957877
10.556792873051226,-0.879832634107338
10.590200445434299,-0.911414144488144
10.623608017817373,-0.8933906509586695
10.657015590200446,-0.7971260625262631
10.69042316258352,-0.6087292249366195
10.723830734966594,-0.3323312971275834
10.757238307349667,0.007617301250554324
10.790645879732741,0.36552952618895235
10.824053452115814,0.6787198324785747
10.857461024498887,0.8798377013498819
10.890868596881962,0.9174673888978961
10.924276169265035,0.7786496960339572
10.957683741648108,0.5027117193696211
10.991091314031182,0.17673499967541187
11.024498886414255,-0.08994783758436588
11.057906458797328,-0.20470736781504945
11.091314031180403,-0.12865674914686756
11.124721603563476,0.10461077111509492
11.158129175946549,0.39813726901671537
11.191536748329623,0.6264755256764866
11.224944320712696,0.6831876776000779
11.25835189309577,0.5223512575930223
11.291759465478844,0.17777708237413767
11.325167037861917,-0.24749738290996845
11.35857461024499,-0.6173792237021676
11.391982182628064,-0.8110136026276354
11.425389755011137,-0.7655980255105512
11.45879732739421,-0.498476744265693
11.492204899777285,-0.10073015373161208
11.525612472160358,0.2956557735697328
11.55902004454343,0.5657063077661639
11.592427616926505,0.6373339452830217
11.625835189309578,0.5178958795092461
11.659242761692651,0.290402063976371
11.692650334075726,0.07945746697338156
11.726057906458799,-0.0008486296370248643
11.759465478841872,0.10332882985816456
11.792873051224946,0.35908385198211656
11.82628062360802,0.6559061336980744
11.859688195991092,0.848460563841861
11.893095768374167,0.8162931229607912
11.92650334075724,0.5154487475801426
11.959910913140313,-0.0005589927239653481
11.993318485523387,-0.6000600578348778
12.02672605790646,-1.1245159444926507
12.060133630289533,-1.4489981578046867
12.093541202672608,-1.5253379155689304
12.12694877505568,-1.3903839070543467
12.160356347438753,-1.1386738605071387
12.193763919821828,-0.8748095275021339
12.227171492204901,-0.668263760786438
12.260579064587974,-0.5297916927920479
12.293986636971049,-0.41726062890355664
12.327394209354122,-0.2655956412633336
12.360801781737194,-0.02605115640591346
12.39420935412027,0.3029806549338388
12.427616926503342,0.6675323406279708
12.461024498886415,0.9765209308343741
12.49443207126949,1.1397942063242112
12.527839643652563,1.1088488489677366
12.561247216035635,0.9008893989289433
12.59465478841871,0.5939716839700984
12.628062360801783,0.29484107283769156
12.661469933184856,0.0947189743499927
12.69487750556793,0.03427175589038973
12.728285077951004,0.09396569693388143
12.761692650334076,0.2127171770920447
12.795100222717151,0.3233642060602677
12.828507795100224,0.3855790246503098
12.861915367483297,0.39937338358254265
12.895322939866372,0.39370591867564503
12.928730512249444,0.39861667947881424
12.962138084632517,0.4182261728663817
12.995545657015592,0.421089670091532
13.028953229398665,0.3544147282328617
13.062360801781738,0.17509929720235096
13.095768374164813,-0.11920851708026
13.129175946547885,-0.4766325844308385
13.162583518930958,-0.8042669166587394
13.195991091314033,-1.0036921910226044
13.229398663697106,-1.0128134479515989
13.262806236080179,-0.8340788675451334
13.296213808463254,-0.5351444654016096
13.329621380846326,-0.221335641245684
13.3630289532294,0.006858847902721721
13.396436525612474,0.09101661662269682
13.429844097995547,0.030325255629128692
13.46325167037862,-0.12860078335596922
13.496659242761694,-0.318267617077196
13.530066815144767,-0.4773645441364588
13.56347438752784,-0.5660334630296225
13.596881959910915,-0.5669669172384567
13.630289532293988,-0.4788554552371662
13.66369710467706,-0.3108930422041177
13.697104677060135,-0.0823939941552602
13.730512249443208,0.1751388801229989
13.763919821826281,0.4193914033568199
13.797327394209356,0.6056135000278112
13.830734966592429,0.7000060909413687
13.864142538975502,0.6918276781056992
13.897550111358576,0.5978186863082513
13.93095768374165,0.4563308997778554
13.964365256124722,0.3135541810745609
13.997772828507797,0.20760831142496022
14.03118040089087,0.1566915551771214
14.064587973273943,0.1553649195598269
14.097995545657017,0.17971494822484535
14.13140311804009,0.19887961417082783
14.164810690423163,0.18818382707742815
14.198218262806238,0.13858597477168705
14.23162583518931,0.058665372923742916
14.265033407572384,-0.031321313735488764
14.298440979955458,-0.11004308256759776
14.331848552338531,-0.16484770280881791
14.365256124721604,-0.19582451351644356
14.398663697104679,-0.21265108736907853
14.432071269487752,-0.22671182689529465
14.465478841870825,-0.24330619909958576
14.4988864142539,-0.2581928692131991
14.532293986636972,-0.2599087689709293
14.565701559020045,-0.23614981387644596
14.59910913140312,-0.1807371434521589
14.632516703786193,-0.09789959598020023
14.665924276169266,-0.002187676863056968
14.69933184855234,0.08576014948075741
14.732739420935413,0.14593623777026948
14.766146993318486,0.16578894822921114
14.79955456570156,0.14475206547762096
14.832962138084634,0.094715294864746
14.866369710467707,0.035956758191938054
14.899777282850781,-0.010253462137154867
14.933184855233854,-0.029678283866924213
14.966592427616927,-0.020524402207646626
15.0,0.006146219560252604
