Frequency (Hz),Amplitude
0.0,2.28265585956971
0.019823788546255508,2.289999442151597
0.039647577092511016,2.3118614525883063
0.059471365638766524,2.347751443283449
0.07929515418502203,2.3969011340743966
0.09911894273127755,2.4583274337223853
0.11894273127753305,2.530903200942741
0.13876651982378857,2.613425276378954
0.15859030837004406,2.704672485977746
0.17841409691629956,2.803450108347966
0.1982378854625551,2.9086204746687327
0.2180616740088106,3.0191213906242367
0.2378854625550661,3.133974972041337
0.25770925110132165,3.2522895875600573
0.27753303964757714,3.3732572603089266
0.29735682819383263,3.4961483713649115
0.31718061674008813,3.6203049973148604
0.3370044052863437,3.7451337811543843
0.3568281938325991,3.870098902934428
0.37665198237885467,3.9947154779889584
0.3964757709251102,4.11854354887609
0.41629955947136565,4.241182733098355
0.4361233480176212,4.3622675253600445
0.4559471365638767,4.481463217348399
0.4757709251101322,4.598462380122192
0.49559471365638774,4.712981847415727
0.5154185022026433,4.824760137988939
0.5352422907488987,4.933555258631444
0.5550660792951543,5.039142834700422
0.5748898678414097,5.141314521010497
0.5947136563876653,5.239876651838719
0.6145374449339208,5.334649094403413
0.6343612334801763,5.4254642752494755
0.6541850220264318,5.512166353464709
0.6740088105726874,5.594610518564814
0.6938325991189428,5.672662394257063
0.7136563876651982,5.746197532176525
0.7334801762114539,5.815100982143269
0.7533039647577093,5.8792669275718445
0.7731277533039648,5.938598376428756
0.7929515418502204,5.9930068996283845
0.8127753303964759,6.042412410024372
0.8325991189427313,6.086742976229764
0.8524229074889869,6.125934666415522
0.8722466960352424,6.159931418020791
0.8920704845814978,6.18868492998237
0.9118942731277534,6.212154574674524
0.931718061674009,6.230307327259612
0.9515418502202644,6.243117710600515
0.9713656387665199,6.250567754288125
0.9911894273127755,6.252646966702979
1.0110132158590308,6.249352319369002
1.0308370044052866,6.240688243177231
1.0506607929515421,6.2266666363673036
1.0704845814977975,6.207306884461019
1.090308370044053,6.182635892654409
1.1101321585903086,6.152688131498737
1.1299559471365639,6.117505697046522
1.1497797356828194,6.077138387012959
1.1696035242290752,6.0316437949182475
1.1894273127753305,5.98108742464073
1.209251101321586,5.925542828339667
1.2290748898678416,5.865091771312759
1.248898678414097,5.799824428055774
1.2687224669603525,5.7298396146094
1.288546255506608,5.6552450632357525
1.3083700440528636,5.576157746592489
1.3281938325991192,5.492704259897984
1.3480176211453747,5.40502127114616
1.36784140969163,5.313256051277081
1.3876651982378856,5.217567098390434
1.4074889867841411,5.118124872657898
1.4273127753303965,5.015112661606407
1.4471365638766522,4.908727598965121
1.4669603524229078,4.799181864346572
1.4867841409691631,4.686704095697221
1.5066079295154187,4.571541051696405
1.5264317180616742,4.4539595670223235
1.5462555066079295,4.334248849428062
1.5660792951541853,4.21272317345953
1.5859030837004409,4.08972503063752
1.6057268722466962,3.965628798727827
1.6255506607929517,3.8408449912311133
1.6453744493392073,3.7158251391286305
1.6651982378854626,3.59106733516862
1.6850220264317182,3.4671224291156393
1.7048458149779737,3.344600789826362
1.7246696035242293,3.224179432496005
1.7444933920704848,3.1066091291419795
1.7643171806167404,2.9927208578916917
1.7841409691629957,2.8834305861467575
1.8039647577092512,2.779740923493375
1.8237885462555068,2.682737656705717
1.8436123348017623,2.5935786900410767
1.863436123348018,2.5134726539697247
1.8832599118942732,2.44364471821142
1.9030837004405288,2.3852883166950463
1.9229074889867843,2.3395038377730892
1.9427312775330399,2.30722876655826
1.9625550660792954,2.2891675615286973
1.982378854625551,2.2857323059432435
2.002202643171806,2.297005302587206
2.0220264317180616,2.322731423386854
2.041850220264317,2.3623418772729092
2.061674008810573,2.415004285953397
2.0814977973568287,2.479689073760304
2.1013215859030843,2.5552406629572655
2.1211453744493394,2.640443643742533
2.140969162995595,2.7340775906414643
2.1607929515418505,2.8349579378951555
2.180616740088106,2.941963235834435
2.2004405286343616,3.0540508232425005
2.220264317180617,3.170263608152595
2.2400881057268722,3.2897306008146585
2.2599118942731278,3.4116634324323067
2.2797356828193833,3.5353505692320217
2.299559471365639,3.660150434476936
2.319383259911895,3.7854842422039177
2.3392070484581504,3.9108290387262143
2.3590308370044055,4.035711230862527
2.378854625550661,4.159700734784537
2.3986784140969166,4.282405787351843
2.418502202643172,4.403468406796687
2.4383259911894277,4.522560459341473
2.4581497797356833,4.639380273922753
2.4779735682819384,4.753649742549147
2.497797356828194,4.86511184487191
2.5176211453744495,4.973528539673014
2.537444933920705,5.078678971539514
2.5572687224669606,5.180357947006753
2.577092511013216,5.278374640353626
2.5969162995594717,5.37255149471946
2.6167400881057272,5.462723289150738
2.6365638766519828,5.548736346534781
2.6563876651982383,5.630447861153641
2.676211453744494,5.707725327837415
2.6960352422907494,5.780446057467748
2.715859030837005,5.848496765938619
2.73568281938326,5.911773225679648
2.7555066079295156,5.970179970539653
2.775330396475771,6.023630046261573
2.7951541850220267,6.0720447999954885
2.8149779735682823,6.115353703329397
2.834801762114538,6.15349420419818
2.854625550660793,6.186411603785234
2.874449339207049,6.214058955181002
2.8942731277533045,6.236396981125945
2.91409691629956,6.253394008659531
2.9339207048458156,6.26502591893357
2.953744493392071,6.271276110841327
2.9735682819383262,6.272135477472194
2.993392070484582,6.267602394735267
3.0132158590308373,6.257682721813277
3.033039647577093,6.242389813416255
3.0528634361233484,6.221744544113809
3.072687224669604,6.195775345339405
3.092511013215859,6.1645182559906
3.1123348017621146,6.128016987902829
3.1321585903083706,6.086323007859968
3.151982378854626,6.039495638233787
3.1718061674008817,5.987602178826896
3.1916299559471373,5.930718053044207
3.2114537444933924,5.8689269821512715
3.231277533039648,5.802321192112366
3.2511013215859035,5.731001658358334
3.270925110132159,5.655078394839163
3.2907488986784146,5.574670794898476
3.31057268722467,5.489908032901507
3.3303964757709252,5.400929537194467
3.350220264317181,5.3078855469182455
3.3700440528634363,5.210937767495165
3.389867841409692,5.110260142310841
3.4096916299559474,5.0060397612849785
3.4295154185022034,4.898477930723601
3.4493392070484585,4.7877914331196605
3.469162995594714,4.674214010444925
3.4889867841409696,4.557998109931069
3.508810572687225,4.439416937265026
3.5286343612334807,4.318766868268309
3.5484581497797363,4.196370275999508
3.5682819383259914,4.072578834933608
3.588105726872247,3.9477773659566817
3.6079295154185025,3.8223882829820632
3.627753303964758,3.6968766903136436
3.6475770925110136,3.5717561537988405
3.667400881057269,3.447595120043329
3.6872246696035247,3.325023874862859
3.7070484581497802,3.204741799269668
3.726872246696036,3.0875244798087476
3.7466960352422913,2.9742299403526715
3.7665198237885464,2.865802870809662
3.7863436123348024,2.763275240328842
3.8061674008810575,2.6677611465785627
3.8259911894273135,2.5804432905133696
3.8458149779735686,2.5025483040528975
3.8656387665198246,2.4353086296352338
3.8854625550660797,2.3799101252877737
3.905286343612335,2.3374272630470188
3.925110132158591,2.3087514707376755
3.9449339207048464,2.294521907842082
3.964757709251102,2.295070219308937
3.9845814977973575,2.310390048394273
4.004405286343612,2.3401377974995965
4.024229074889869,2.383664460443818
4.044052863436123,2.4400717523576168
4.06387665198238,2.5082816372184262
4.083700440528634,2.5871077671623626
4.103524229074891,2.67531971448986
4.123348017621146,2.7716946451162916
4.143171806167401,2.875054727073504
4.162995594713657,2.984291198552586
4.182819383259912,3.0983774357112024
4.2026431718061685,3.216373791373486
4.222466960352423,3.3374267925042926
4.242290748898679,3.4607648152764403
4.262114537444934,3.5856918219636316
4.28193832599119,3.711580261090286
4.301762114537445,3.83786384647934
4.321585903083701,3.9640306463865747
4.3414096916299565,4.089616716580143
4.361233480176212,4.214200381377113
4.381057268722468,4.3373971856403255
4.400881057268723,4.4588554933378495
4.420704845814979,4.578252683041025
4.440528634361234,4.695291879564178
4.46035242290749,4.809699158295245
4.4801762114537445,4.921221160985496
4.500000000000001,5.029623066527832
4.5198237885462555,5.134686866118081
4.539647577092512,5.236209898307906
4.559471365638767,5.3340036053410484
4.579295154185023,5.427892477572495
4.599118942731278,5.517713157599401
4.618942731277533,5.6033136799642325
4.63876651982379,5.684552825950432
4.658590308370044,5.761299576129475
4.678414096916301,5.833432645992364
4.6982378854625555,5.90084009227004
4.718061674008811,5.963418979471372
4.737885462555067,6.021075097796547
4.757709251101322,6.073722724963805
4.777533039647578,6.121284425657374
4.797356828193833,6.163690883299967
4.817180616740089,6.200880759702303
4.837004405286344,6.232800578869733
4.856828193832599,6.259404631874904
4.876651982378855,6.28065490025088
4.896475770925111,6.296520995839531
4.9162995594713665,6.306980115455626
4.936123348017622,6.312017009112337
4.955947136563877,6.311623960906023
4.975770925110133,6.305800781989261
4.995594713656388,6.2945548153763475
5.015418502202644,6.277900952636248
5.035242290748899,6.2558616628387105
5.055066079295155,6.228467034440099
5.07488986784141,6.195754831133604
5.094713656387666,6.157770563052021
5.114537444933921,6.114567575110935
5.134361233480177,6.06620715472547
5.154185022026432,6.012758661637503
5.174008810572688,5.954299683165907
5.193832599118943,5.8909162188577415
5.213656387665199,5.822702899289912
5.2334801762114544,5.749763244674765
5.25330396475771,5.672209969983015
5.2731277533039655,5.590165344546739
5.292951541850221,5.5037616155793385
5.312775330396477,5.41314150679232
5.332599118942731,5.318458805347879
5.352422907488988,5.219879052817867
5.372246696035242,5.117580358683167
5.392070484581499,5.011754358264587
5.4118942731277535,4.902607340888723
5.43171806167401,4.790361578604701
5.451541850220265,4.67525689090138
5.47136563876652,4.557552486592402
5.491189427312777,4.437529130203132
5.511013215859031,4.315491686506722
5.530837004405288,4.191772102738316
5.550660792951542,4.066732892453676
5.570484581497798,3.9407711862981345
5.5903083700440535,3.814323410397596
5.610132158590309,3.6878706384465656
5.6299559471365646,3.561944632482779
5.64977973568282,3.437134530542242
5.669603524229076,3.3140940440025672
5.689427312775331,3.1935488766039186
5.709251101321586,3.0763038509136558
5.729074889867842,2.9632489067033463
5.748898678414098,2.8553627083081343
5.768722466960353,2.753712078320512
5.788546255506609,2.6594449277059704
5.808370044052864,2.5737739272790616
5.82819383259912,2.4979481248853763
5.848017621145375,2.433210420803913
5.867841409691631,2.3807406360861765
5.887665198237886,2.3415869816691353
5.907488986784142,2.31659265353589
5.927312775330397,2.3063278887511447
5.9471365638766525,2.31103944280858
5.966960352422908,2.330627689358028
5.986784140969164,2.3646562972729273
6.00660792951542,2.412392344941705
6.026431718061675,2.4728684497876947
6.04625550660793,2.5449552256885055
6.066079295154186,2.627432744057448
6.085903083700441,2.719052682483437
6.105726872246697,2.818586811497619
6.125550660792952,2.9248609718010683
6.145374449339208,3.0367760299326156
6.1651982378854635,3.1533184237206733
6.185022026431718,3.27356312657691
6.204845814977975,3.39667155457266
6.224669603524229,3.52188642062949
6.244493392070486,3.6485249990880746
6.264317180616741,3.7759717963474566
6.284140969162996,3.90367126000948
6.303964757709252,4.031120896679549
6.323788546255507,4.157864989828846
6.3436123348017635,4.283488993518165
6.363436123348018,4.407614607058855
6.3832599118942746,4.529895495393291
6.403083700440529,4.6500135994856855
6.422907488986785,4.7676759728906895
6.44273127753304,4.882612079907795
6.462555066079296,4.994571494072258
6.482378854625551,5.1033219411207495
6.502202643171807,5.20864763674573
6.5220264317180625,5.310347875685047
6.541850220264318,5.4082358345826345
6.561674008810574,5.502137556406736
6.581497797356829,5.591891088955125
6.601321585903085,5.677345754108955
6.62114537444934,5.758361528058417
6.640969162995596,5.834808515767951
6.6607929515418505,5.906566505538345
6.680616740088107,5.973524591719777
6.700440528634362,6.035580855487956
6.720264317180618,6.09264209516944
6.740088105726873,6.144623598933519
6.759911894273129,6.1914489537989965
6.779735682819384,6.233049885864349
6.799559471365639,6.269366127491798
6.819383259911895,6.30034530788016
6.83920704845815,6.325942864070436
6.859030837004407,6.34612196995926
6.8788546255506615,6.360853481363107
6.898678414096917,6.370115895592739
6.918502202643173,6.3738953243762655
6.938325991189428,6.372185479316855
6.958149779735684,6.364987669400363
6.977973568281939,6.352310810384093
6.997797356828195,6.334171446210179
7.01762114537445,6.31059378290345
7.037444933920705,6.281609735741269
7.0572687224669615,6.247258990830468
7.077092511013216,6.20758908260342
7.096916299559473,6.162655489160874
7.116740088105728,6.112521747854761
7.136563876651983,6.057259594032755
7.156387665198239,5.9969491264732335
7.176211453744494,5.93167900374004
7.19603524229075,5.861546676505356
7.215859030837005,5.786658661844928
7.235682819383261,5.7071308666372635
7.255506607929516,5.623088968525913
7.275330396475772,5.534668864473705
7.295154185022027,5.442017198795214
7.314977973568283,5.345291984748806
7.334801762114538,5.244663336364476
7.354625550660794,5.140314330238052
7.374449339207049,5.032442020604602
7.394273127753305,4.921258635172878
7.4140969162995605,4.8069929840066745
7.433920704845816,4.689892119188708
7.453744493392072,4.570223289046149
7.473568281938327,4.448276237188394
7.493392070484583,4.324365903144508
7.513215859030838,4.198835587316523
7.533039647577093,4.072060647107573
7.552863436123348,3.944452791492543
7.572687224669605,3.81646503485464
7.59251101321586,3.6885973527913825
7.612334801762115,3.561403045566643
7.6321585903083715,3.435495748513573
7.651982378854627,3.311556918604029
7.671806167400882,3.1903434541104936
7.691629955947137,3.072694848524747
7.711453744493394,2.959538921147258
7.731277533039649,2.8518946976577397
7.751101321585904,2.7508704586737736
7.7709251101321595,2.6576544184933546
7.790748898678416,2.57349512323608
7.81057268722467,2.4996687718217108
7.830396475770926,2.4374316603407404
7.850220264317182,2.3879581792869904
7.870044052863436,2.3522682817317606
7.889867841409693,2.331152467988924
7.909691629955948,2.3251057020954757
7.929515418502204,2.334282510877228
7.9493392070484585,2.3584826273846162
7.969162995594715,2.3971703234929356
7.9889867841409705,2.4495231669207826
8.008810572687224,2.5145001439847823
8.02863436123348,2.5909168114964447
8.048458149779737,2.6775164814807586
8.068281938325994,2.77303004245428
8.088105726872246,2.8762211141193763
8.107929515418503,2.9859165373625056
8.12775330396476,3.10102421900021
8.147577092511014,3.220541181679698
8.167400881057269,3.343554683831571
8.187224669603525,3.4692388584549736
8.207048458149782,3.5968487572152874
8.226872246696036,3.7257131431207005
8.246696035242293,3.8552269244188904
8.266519823788547,3.984843781834308
8.286343612334802,4.114069300674182
8.306167400881058,4.242454758501255
8.325991189427315,4.36959161708903
8.345814977973568,4.495106706451587
8.365638766519824,4.61865805521218
8.38546255506608,4.739931305596933
8.405286343612337,4.858636646133945
8.42511013215859,4.974506196201286
8.444933920704846,5.087291781003693
8.464757709251103,5.196763041564258
8.484581497797357,5.302705830810862
8.504405286343614,5.404920853202385
8.524229074889869,5.503222511250687
8.544052863436125,5.597437927606593
8.56387665198238,5.687406116048455
8.583700440528636,5.77297727876134
8.60352422907489,5.854012210768718
8.623348017621145,5.930381795341183
8.643171806167402,6.0019665767205925
8.662995594713658,6.06865639862691
8.682819383259913,6.130350098814867
8.702643171806168,6.186955251470125
8.722466960352424,6.238387950523177
8.74229074889868,6.28457262805274
8.762114537444935,6.325441902881167
8.78193832599119,6.360936455259714
8.801762114537446,6.391004924225597
8.821585903083701,6.415603824804816
8.841409691629957,6.4346974827525285
8.861233480176212,6.4482579849793344
8.881057268722468,6.456265144222248
8.900881057268723,6.4587064768912485
8.92070484581498,6.455577193368724
8.940528634361234,6.4468802003667784
8.960352422907489,6.432626115265941
8.980176211453745,6.41283329267505
9.000000000000002,6.387527863774921
9.019823788546258,6.356743789345865
9.039647577092511,6.320522927738899
9.059471365638768,6.2789151194433765
9.079295154185024,6.231978290339102
9.099118942731279,6.179778576211212
9.118942731277533,6.122390471664782
9.13876651982379,6.059897007219077
9.158590308370046,5.992389959107621
9.1784140969163,5.9199700971815865
9.198237885462555,5.842747477336812
9.218061674008812,5.7608417860895145
9.237885462555067,5.674382746349541
9.257709251101323,5.583510595123841
9.27753303964758,5.488376645878228
9.297356828193834,5.389143950646397
9.317180616740089,5.2859880797662875
9.337004405286345,5.179098040412289
9.356828193832602,5.0686773589472365
9.376651982378855,4.954945356603679
9.396475770925111,4.838138653165412
9.416299559471367,4.718512939161641
9.436123348017622,4.596345063537229
9.455947136563877,4.47193549061707
9.475770925110133,4.34561118701192
9.49559471365639,4.217729005120333
9.515418502202644,4.0886796336925295
9.5352422907489,3.9588921852689647
9.555066079295155,3.8288394815783082
9.57488986784141,3.6990440756111456
9.594713656387666,3.5700850047783454
9.614537444933923,3.4426051914198523
9.634361233480178,3.317319278749035
9.654185022026432,3.195021491639182
9.674008810572689,3.0765928197561845
9.693832599118945,2.963006416422266
9.713656387665198,2.855329588063113
9.733480176211454,2.7547201541299406
9.75330396475771,2.662414398698668
9.773127753303967,2.579703537848754
9.792951541850222,2.5078959450584506
9.812775330396477,2.4482637363327706
9.832599118942733,2.4019750305440346
9.852422907488988,2.370017144501143
9.872246696035244,2.3531202698136586
9.892070484581499,2.351694147989963
9.911894273127754,2.365790085666485
9.93171806167401,2.395096471127457
9.951541850220266,2.438968765708662
9.971365638766521,2.4964873850464033
9.991189427312776,2.566531802493252
10.011013215859032,2.6478580703107384
10.030837004405289,2.7391693016268506
10.050660792951543,2.839172786823544
10.070484581497798,2.94662155127855
10.090308370044054,3.060341205331946
10.11013215859031,3.1792446071195846
10.129955947136565,3.3023373935632336
10.14977973568282,3.4287172542084394
10.169603524229077,3.557569305878319
10.189427312775331,3.688159329314469
10.209251101321588,3.8198260886793443
10.229074889867842,3.951973523659212
10.248898678414099,4.0840632870789175
10.268722466960353,4.215607882164972
10.28854625550661,4.346164510461119
10.308370044052865,4.475329652734337
10.32819383259912,4.602734353807704
10.348017621145376,4.728040155281043
10.367841409691632,4.850935608490236
10.387665198237887,4.971133297676134
10.407488986784141,5.08836730616905
10.427312775330398,5.202391063900932
10.447136563876654,5.312975521175113
10.466960352422909,5.419907600438401
10.486784140969164,5.522988884305654
10.50660792951542,5.622034504031245
10.526431718061675,5.7168721979049435
10.546255506607931,5.8073415136603685
10.566079295154186,5.893293132957842
10.585903083700442,5.974588299400691
10.605726872246697,6.05109833443008
10.625550660792953,6.122704227889158
10.645374449339208,6.18929629211293
10.665198237885463,6.250773870146682
10.685022026431719,6.30704509017054
10.704845814977975,6.3580266594565815
10.724669603524232,6.403643692244464
10.744493392070485,6.443829566823765
10.764317180616741,6.478525807883276
10.784140969162998,6.507681990852479
10.803964757709252,6.531255665536867
10.823788546255507,6.549212296854641
