Time (s),Filtered Signal
0.0,-0.008494481475384884
0.033370535714285714,0.10244862168395995
0.06674107142857143,0.23263875820997418
0.10011160714285713,0.390927664525165
0.13348214285714285,0.5687103212327791
0.16685267857142858,0.7400410608618824
0.20022321428571427,0.8691652688851005
0.23359375,0.9230536657955588
0.2669642857142857,0.8839610635781292
0.30033482142857143,0.7564949055912189
0.33370535714285715,0.5658810389233444
0.36707589285714287,0.34818682582046195
0.40044642857142854,0.137139132392779
0.43381696428571426,-0.046234033332654675
0.4671875,-0.1965314956149974
0.5005580357142857,-0.3189013013696799
0.5339285714285714,-0.4196349104681261
0.5672991071428571,-0.4981767722632675
0.6006696428571429,-0.5449817494884659
0.6340401785714286,-0.5458274598827605
0.6674107142857143,-0.4893322566047979
0.70078125,-0.37303712608646505
0.7341517857142857,-0.20521919487600582
0.7675223214285715,-0.003014008155680043
0.8008928571428571,0.21031358072904538
0.8342633928571428,0.40673322050755517
0.8676339285714285,0.5540506347156894
0.9010044642857142,0.6187560608984096
0.934375,0.5737050911855925
0.9677455357142857,0.4097944733989673
1.0011160714285714,0.14670776058960003
1.0344866071428571,-0.16390103636037603
1.0678571428571428,-0.4472722355524783
1.1012276785714286,-0.6259078890987255
1.1345982142857143,-0.645424217916859
1.16796875,-0.49637783525673834
1.2013392857142857,-0.2225913644478141
1.2347098214285714,0.08944932060923573
1.2680803571428572,0.3383735664590352
1.3014508928571429,0.4433775404083012
1.3348214285714286,0.3732590890158756
1.3681919642857143,0.15654939355869307
1.4015625,-0.13185935871389232
1.4349330357142858,-0.4015781302560215
1.4683035714285715,-0.5811539155450269
1.5016741071428572,-0.641047926562891
1.535044642857143,-0.596250872546405
1.5684151785714286,-0.48961125080458356
1.6017857142857141,-0.36575895794314295
1.6351562499999999,-0.2490590992386056
1.6685267857142856,-0.1360288215525106
1.7018973214285713,-0.004854644016690329
1.735267857142857,0.16412924239021368
1.7686383928571427,0.36872494143726786
1.8020089285714285,0.5772676158730329
1.8353794642857142,0.7381564967883165
1.86875,0.8023207228005182
1.9021205357142856,0.7471595090865921
1.9354910714285714,0.5892713416178416
1.968861607142857,0.37896638885841605
2.002232142857143,0.179121477819386
2.0356026785714287,0.039096616417843906
2.0689732142857142,-0.023370274718663382
2.10234375,-0.02425310320196027
2.1357142857142857,-0.00015341275246272672
2.169084821428571,0.011590212894722503
2.202455357142857,-0.010822876357309507
2.2358258928571426,-0.06769161516107289
2.2691964285714286,-0.142531579377675
2.302566964285714,-0.21288101390333297
2.3359375,-0.2610718418575454
2.3693080357142855,-0.280356352611666
2.4026785714285714,-0.2747176114147266
2.436049107142857,-0.2536118596123214
2.469419642857143,-0.22493420437738096
2.5027901785714284,-0.1901150952094753
2.5361607142857143,-0.14412718271556604
2.56953125,-0.08056948484105114
2.6029017857142858,0.0009978214429023123
2.6362723214285713,0.09004364901820203
2.669642857142857,0.16620740710194448
2.7030133928571427,0.20720365164697094
2.7363839285714286,0.2000013522524986
2.769754464285714,0.14918691113369742
2.803125,0.0771078273673181
2.8364955357142856,0.014372426197503107
2.8698660714285715,-0.015403631206905157
2.903236607142857,-0.008955666913699355
2.936607142857143,0.0127441906616488
2.9699776785714285,0.013361454323096074
3.0033482142857144,-0.04050216058253341
3.03671875,-0.16042426692655093
3.070089285714286,-0.3266014252962901
3.1034598214285714,-0.4930713706378847
3.1368303571428573,-0.6054184326819262
3.170200892857143,-0.6221116567688638
3.2035714285714283,-0.5292394524029373
3.2369419642857142,-0.3428283060133623
3.2703124999999997,-0.10003417184707078
3.3036830357142857,0.1543114892801195
3.337053571428571,0.3788128529002529
3.370424107142857,0.5408282392167506
3.4037946428571426,0.6171043588430422
3.4371651785714286,0.5934585384393768
3.470535714285714,0.4668248236435863
3.50390625,0.2503373657702021
3.5372767857142855,-0.02105509815578731
3.5706473214285714,-0.2890725164253532
3.604017857142857,-0.47925582448790083
3.637388392857143,-0.5186169917849646
3.6707589285714284,-0.3606696400707074
3.7041294642857143,-0.009424482570244018
3.7375,0.4688264045674741
3.7708705357142858,0.9548297128724607
3.8042410714285713,1.3081010218448936
3.837611607142857,1.4123135514813774
3.8709821428571427,1.2178968197365143
3.9043526785714286,0.764313609328942
3.937723214285714,0.17127504105752198
3.97109375,-0.39973889146080466
4.004464285714286,-0.800076417046614
4.0378348214285715,-0.9441378131749769
4.0712053571428575,-0.8361694864056924
4.1045758928571425,-0.5637294261862354
4.1379464285714285,-0.2609475724444566
4.171316964285714,-0.056305393901669
4.2046875,-0.025292237765798337
4.238058035714285,-0.16584779482937856
4.271428571428571,-0.40505470457426296
4.304799107142857,-0.6329891634624235
4.338169642857142,-0.7490998465820505
4.371540178571428,-0.7021562899590682
4.404910714285714,-0.5081744893224457
4.43828125,-0.24012910049088937
4.471651785714285,0.005188605056438266
4.505022321428571,0.14863789373844627
4.538392857142857,0.16081439383230967
4.571763392857143,0.07129654171067677
4.605133928571428,-0.04825991630090554
4.638504464285714,-0.11874664569303356
4.671875,-0.08962110122464259
4.705245535714286,0.040116598006353484
4.738616071428571,0.2246602814888344
4.771986607142857,0.3949326023227609
4.805357142857143,0.49055546184788523
4.838727678571429,0.4850754745277274
4.872098214285714,0.39379014859544115
4.90546875,0.26244412982793786
4.938839285714286,0.14381395468809222
4.972209821428572,0.07395907024021849
5.005580357142857,0.05907629936506466
5.038950892857143,0.07825885428391594
5.072321428571429,0.09963742017623689
5.105691964285715,0.10082392145705586
5.1390625,0.08240243803276218
5.172433035714286,0.06680281722549593
5.2058035714285715,0.08283919314688475
5.2391741071428575,0.14448693295328863
5.2725446428571425,0.23641067161527846
5.3059151785714285,0.31572392597859505
5.339285714285714,0.3307395038522633
5.3726562499999995,0.24775989250587904
5.406026785714285,0.07174545187248069
5.439397321428571,-0.15090945161659414
5.472767857142857,-0.3503267981669851
5.506138392857142,-0.4638166615682297
5.539508928571428,-0.46423034003691516
5.572879464285714,-0.37151295701321296
5.60625,-0.24106354685154105
5.639620535714285,-0.13423804791379756
5.672991071428571,-0.08584812875580525
5.706361607142857,-0.0858454862093592
5.739732142857143,-0.08590953051593632
5.773102678571428,-0.029065646861759373
5.806473214285714,0.11223234855814865
5.83984375,0.3102250243609262
5.873214285714286,0.4843441133796736
5.906584821428571,0.5343917747839224
5.939955357142857,0.3901382097905183
5.973325892857143,0.05277848275039855
6.006696428571429,-0.3940336363830477
6.040066964285714,-0.811439162913576
6.0734375,-1.0595932504328585
6.106808035714286,-1.0538632582694174
6.140178571428572,-0.7972142463749857
6.173549107142857,-0.3752934477913235
6.206919642857143,0.08078668060474288
6.240290178571429,0.444404763307549
6.273660714285715,0.6334093859693131
6.30703125,0.6261877939702418
6.340401785714286,0.4541396412119894
6.3737723214285715,0.18156748300287529
6.407142857142857,-0.11441320811419799
6.4405133928571425,-0.3576929095151286
6.4738839285714285,-0.48253902998471054
6.507254464285714,-0.4438061377905029
6.5406249999999995,-0.2300711500672239
6.573995535714285,0.12490044798165012
6.607366071428571,0.54133134814505
6.640736607142857,0.9100973791907268
6.674107142857142,1.1253810322745643
6.707477678571428,1.1219941738916106
6.740848214285714,0.9009968311130995
6.77421875,0.5307050206914846
6.807589285714285,0.12096832863420638
6.840959821428571,-0.2187965692178326
6.874330357142857,-0.41948976828395546
6.907700892857143,-0.4727578943588879
6.941071428571428,-0.4238815754646147
6.974441964285714,-0.3421183050120854
7.0078125,-0.28404767052798163
7.041183035714286,-0.26828442855939894
7.074553571428571,-0.2734814846577146
7.107924107142857,-0.25896115934261216
7.141294642857143,-0.1951224185281253
7.174665178571429,-0.0856680816179393
7.208035714285714,0.03127034437743363
7.24140625,0.10357434316463814
7.274776785714286,0.09496326218836114
7.308147321428572,0.00668812721255538
7.341517857142857,-0.12135267996582288
7.374888392857143,-0.23035894749259514
7.408258928571429,-0.2717451979212067
7.441629464285715,-0.22960514036161564
7.475,-0.12529734145182878
7.508370535714286,-0.003540439155252715
7.5417410714285715,0.09069073182027215
7.575111607142857,0.1314755712754073
7.6084821428571425,0.11837066686255848
7.6418526785714285,0.06925145319971995
7.675223214285714,0.006442750772904775
7.7085937499999995,-0.05449811697871856
7.741964285714285,-0.10736899041865222
7.775334821428571,-0.14988940687246738
7.808705357142857,-0.17634431234671258
7.842075892857142,-0.17543727159944697
7.875446428571428,-0.13648271439012025
7.908816964285714,-0.06054808322245857
7.9421875,0.031643830193599023
7.975558035714285,0.10286360136053814
8.008928571428571,0.11539074339097452
8.042299107142856,0.05327452126884703
8.075669642857143,-0.06150986269185798
8.109040178571428,-0.1703070887714947
8.142410714285715,-0.19957109154451882
8.17578125,-0.09508051120733929
8.209151785714285,0.1476099108413804
8.242522321428572,0.47256767243395753
8.275892857142857,0.7799347648388824
8.309263392857142,0.9634306057815728
8.342633928571429,0.9524539535689232
8.376004464285714,0.7401798410175319
8.409375,0.385943547475483
8.442745535714286,-0.007978455639716756
8.47611607142857,-0.3344378767361095
8.509486607142858,-0.5186243810948004
8.542857142857143,-0.5405494420752984
8.576227678571428,-0.4357665058576279
8.609598214285715,-0.2759242221821833
8.64296875,-0.1380287863511406
8.676339285714285,-0.07486796230896746
8.709709821428572,-0.09784714230624675
8.743080357142857,-0.17801079901308048
8.776450892857143,-0.2633587068497403
8.809821428571428,-0.3038309611764653
8.843191964285714,-0.2725261729037278
8.8765625,-0.17428422120385612
8.909933035714285,-0.03954929528867506
8.94330357142857,0.09118800798780693
8.976674107142857,0.18331774052893612
9.010044642857142,0.21728052483707774
9.04341517857143,0.18964068927460456
9.076785714285714,0.10986082373295347
9.11015625,-0.002636159707125799
9.143526785714286,-0.1200004168884637
9.176897321428571,-0.20899453536297202
9.210267857142856,-0.2389787923844659
9.243638392857143,-0.19438487029249094
9.277008928571428,-0.08591078916151487
9.310379464285715,0.047496438061275056
9.34375,0.1503284246397123
9.377120535714285,0.17279285690887192
9.410491071428572,0.09367110393133014
9.443861607142857,-0.06795955768169587
9.477232142857142,-0.2588349004755311
9.510602678571429,-0.4129983451414677
9.543973214285714,-0.4781517920231543
9.57734375,-0.434014144120683
9.610714285714286,-0.29469348861423295
9.64408482142857,-0.09623390678970413
9.677455357142858,0.12159846764097526
9.710825892857143,0.3283563687388436
9.744196428571428,0.5048738073958876
9.777566964285715,0.6365139205047914
9.8109375,0.7059228166168858
9.844308035714285,0.693170661075094
9.877678571428572,0.5851564284467289
9.911049107142857,0.38874044609026154
9.944419642857143,0.13825950289692296
9.977790178571428,-0.1095819894750376
10.011160714285714,-0.2933388191589746
10.04453125,-0.36929612710139564
10.077901785714285,-0.32771593072196065
10.11127232142857,-0.19474249429761725
10.144642857142857,-0.019513392544325422
10.178013392857142,0.14615573892550696
10.21138392857143,0.2648682521613274
10.244754464285714,0.3200132298597483
10.278125,0.31121945108869437
10.311495535714286,0.2453558086658392
10.344866071428571,0.13111965614745597
10.378236607142856,-0.019139217273944784
10.411607142857143,-0.18379017070695639
10.444977678571428,-0.33029805703000403
10.478348214285715,-0.4234002198786903
10.51171875,-0.441376615828336
10.545089285714285,-0.3909394837934071
10.578459821428572,-0.30926986524504074
10.611830357142857,-0.24795064583624188
10.645200892857142,-0.24480069674817667
10.678571428571429,-0.2988375427496764
10.711941964285714,-0.3643214626548944
10.745312499999999,-0.3705143214266477
10.778683035714286,-0.25919967789503917
10.81205357142857,-0.020701580432402916
10.845424107142858,0.2917492394528492
10.878794642857143,0.5787762252978159
10.912165178571428,0.735785636000224
10.945535714285715,0.6982341948337399
10.97890625,0.4693027499538886
11.012276785714285,0.11757525154099394
11.045647321428572,-0.2522251033554233
11.079017857142857,-0.5396979722242231
11.112388392857143,-0.6812748012674098
11.145758928571428,-0.6623605138333154
11.179129464285714,-0.5087778113047702
11.2125,-0.26738190564506625
11.245870535714285,0.011361439419021275
11.27924107142857,0.2810747719011538
11.312611607142857,0.49863090362047524
11.345982142857142,0.6226627648270321
11.37935267857143,0.619270133247726
11.412723214285714,0.4760460572363385
11.44609375,0.2168451385974306
11.479464285714286,-0.0945055455433873
11.512834821428571,-0.36926304625031076
11.546205357142856,-0.5246064792210067
11.579575892857143,-0.5164996913249389
11.612946428571428,-0.3572625299812699
11.646316964285715,-0.10738563382212664
11.6796875,0.15491933771566627
11.713058035714285,0.3700373971130658
11.746428571428572,0.5190109075746596
11.779799107142857,0.6195199131341078
11.813169642857142,0.699671463503754
11.846540178571429,0.767074210746776
11.879910714285714,0.7936151605629208
11.913281249999999,0.7266562786533608
11.946651785714286,0.5209646662910732
11.98002232142857,0.17271547193877318
12.013392857142858,-0.26477050921140544
12.046763392857143,-0.6935913826215176
12.080133928571428,-1.006500699021211
12.113504464285715,-1.1274652848954474
12.146875,-1.038540347647036
12.180245535714285,-0.7822182094682817
12.213616071428572,-0.44087859478978886
12.246986607142857,-0.10491103855902142
12.280357142857143,0.1558784473652942
12.313727678571428,0.3070644093758389
12.347098214285714,0.3481724637042764
12.38046875,0.30020334973093515
12.413839285714285,0.19091884147592206
12.44720982142857,0.045277033680823864
12.480580357142857,-0.11642314963971544
12.513950892857142,-0.2751403475155206
12.54732142857143,-0.40928122167490233
12.580691964285714,-0.4943712560902564
12.6140625,-0.5072082178212195
12.647433035714286,-0.4328902515547278
12.680803571428571,-0.272015936813721
12.714174107142856,-0.04544907758826483
12.747544642857143,0.20562369370799433
12.780915178571428,0.4262007378788772
12.814285714285713,0.5610058893378927
12.84765625,0.5724879337263479
12.881026785714285,0.45702689791791995
12.914397321428572,0.25136220028383643
12.947767857142857,0.023742264125758045
12.981138392857142,-0.14914293818425772
13.014508928571429,-0.2108201957041461
13.047879464285714,-0.14650665338526334
13.081249999999999,0.013064486390993894
13.114620535714286,0.20761413641018162
13.14799107142857,0.3750597641618836
13.181361607142858,0.47673049277296137
13.214732142857143,0.507358351396189
13.248102678571428,0.48611702286972713
13.281473214285715,0.4361394406741909
13.31484375,0.3664267730293415
13.348214285714285,0.2677483872417247
13.381584821428572,0.12455941885675083
13.414955357142857,-0.06562168553993541
13.448325892857143,-0.2788062968293547
13.481696428571428,-0.46692605424522066
13.515066964285714,-0.576392174184395
13.5484375,-0.5736872946559488
13.581808035714285,-0.46449596824221123
13.61517857142857,-0.2956643548784776
13.648549107142857,-0.13759264959287637
13.681919642857142,-0.05442922845308992
13.71529017857143,-0.07587328191676854
13.748660714285714,-0.1840771462308958
13.78203125,-0.3218956865722969
13.815401785714286,-0.4181699792482785
13.848772321428571,-0.4175235415863882
13.882142857142856,-0.3007500230759145
13.915513392857143,-0.08782902655297813
13.948883928571428,0.1747784976856209
13.982254464285713,0.4333146738583454
14.015625,0.641779694549474
14.048995535714285,0.7672832929226822
14.082366071428572,0.787757584202127
14.115736607142857,0.6891283411102612
14.149107142857142,0.46826007939653125
14.182477678571429,0.14217889301187595
14.215848214285714,-0.24266248828434944
14.249218749999999,-0.610277776975909
14.282589285714286,-0.870200357360945
14.31595982142857,-0.9456861641194532
14.349330357142858,-0.8046037483608216
14.382700892857143,-0.47865297575201704
14.416071428571428,-0.059957465119169176
14.449441964285715,0.32646243813692954
14.4828125,0.5649518359186269
14.516183035714285,0.5899211049476857
14.549553571428572,0.40890257994335
14.582924107142857,0.098874893121621
14.616294642857143,-0.22260965543729996
14.649665178571428,-0.4400115645488091
14.683035714285714,-0.4793654955793822
14.71640625,-0.32989423092877795
14.749776785714285,-0.04105925725545948
14.78314732142857,0.300701088443411
14.816517857142857,0.6034342194715895
14.849888392857142,0.7962465660102066
14.88325892857143,0.8433819275923408
14.916629464285714,0.7457966712866488
14.95,0.5349280249136323
14.983370535714286,0.2631338934747535
15.016741071428571,-0.007813182101008826
15.050111607142856,-0.22081044560906324
15.083482142857143,-0.3392541478077344
15.116852678571428,-0.3599692330322514
15.150223214285713,-0.31616897928560234
15.18359375,-0.2656067376538456
15.216964285714285,-0.26595830532987536
15.250334821428572,-0.34723191897739764
15.283705357142857,-0.4945129015386504
15.317075892857142,-0.6506749444770227
15.350446428571429,-0.7392758832512959
15.383816964285714,-0.697784804018592
15.417187499999999,-0.5061166258974648
15.450558035714286,-0.19780723176561965
15.48392857142857,0.1506237001779735
15.517299107142858,0.44704840751946223
15.550669642857143,0.6164193145756562
15.584040178571428,0.6263101237573757
15.617410714285715,0.496538987259506
15.65078125,0.2903039271020401
15.684151785714285,0.09058561993540788
15.717522321428572,-0.02972127265364142
15.750892857142857,-0.033441303689534935
15.784263392857143,0.0687943903317652
15.817633928571428,0.2248036792322032
15.851004464285714,0.3633477567663051
15.884375,0.42381234178390326
15.917745535714285,0.3802931015566349
15.95111607142857,0.24933166083623798
15.984486607142857,0.07820802639600558
16.017857142857142,-0.0795515697073812
16.05122767857143,-0.18833369911642484
16.084598214285712,-0.24192469920091197
16.11796875,-0.2576976550644732
16.151339285714286,-0.25891943621578334
16.18470982142857,-0.257016139751493
16.218080357142856,-0.24482212913191798
16.251450892857143,-0.20456115769784472
16.28482142857143,-0.12500569094727523
16.318191964285713,-0.01640999562936469
16.3515625,0.08712560924851323
16.384933035714287,0.14078019825473523
16.41830357142857,0.11114980462353212
16.451674107142857,-0.0047643631564133135
16.485044642857144,-0.17438822899311596
16.518415178571427,-0.3412485053557096
16.551785714285714,-0.4474646326563763
16.58515625,-0.4558980106530008
16.618526785714284,-0.36204644638651434
16.65189732142857,-0.1919051053787636
16.685267857142858,0.01096832116553892
16.71863839285714,0.2018289401554418
16.752008928571428,0.34748138012230073
16.785379464285715,0.4318133732123171
16.81875,0.45469810683694073
16.852120535714285,0.4272850590199195
16.88549107142857,0.3666938120049958
16.91886160714286,0.2915505815148826
16.95223214285714,0.21829045972710776
16.98560267857143,0.15784636984648884
17.018973214285715,0.11320894278329248
17.05234375,0.07927688858673643
17.085714285714285,0.046188715503453215
17.119084821428572,0.005579810911336568
17.152455357142856,-0.04309072993270696
17.185825892857142,-0.09010211740967802
17.21919642857143,-0.1195035422927949
17.252566964285712,-0.118638054912747
17.2859375,-0.08841700864355188
17.319308035714286,-0.048114281227758134
17.35267857142857,-0.03054092962468274
17.386049107142856,-0.06828132079072585
17.419419642857143,-0.17665873089889705
17.45279017857143,-0.3415271605139443
17.486160714285713,-0.5185308669951565
17.51953125,-0.6457929294982361
17.552901785714287,-0.6661697792812667
17.58627232142857,-0.5506617601517837
17.619642857142857,-0.3131917900597295
17.653013392857144,-0.009607297431535334
17.686383928571427,0.28015921865369975
