Frequency (Hz),Amplitude
0.0,6.213638783685892
0.01978021978021978,6.213079386698691
0.03956043956043956,6.211403090740882
0.05934065934065934,6.208615577316068
0.07912087912087912,6.204726303880246
0.0989010989010989,6.199748486182018
0.11868131868131868,6.193699073369798
0.13846153846153844,6.186598715698014
0.15824175824175823,6.178471724617864
0.17802197802197803,6.169346024993119
0.1978021978021978,6.159253099138126
0.21758241758241756,6.14822792233406
0.23736263736263735,6.136308889441263
0.2571428571428572,6.12353773219075
0.2769230769230769,6.109959426707778
0.2967032967032967,6.095622090795117
0.31648351648351647,6.080576870485252
0.3362637362637363,6.064877815359302
0.35604395604395606,6.048581742128169
0.3758241758241758,6.031748085979485
0.3956043956043956,6.014438739212902
0.4153846153846154,5.996717876719602
0.4351648351648351,5.978651767908914
0.45494505494505494,5.960308574748885
0.4747252747252747,5.941758135669178
0.4945054945054945,5.923071735174993
0.5142857142857143,5.9043218591414846
0.5340659340659341,5.885581935899207
0.5538461538461538,5.866926063383753
0.5736263736263736,5.8484287228057
0.5934065934065934,5.830164479500439
0.6131868131868132,5.8122076718386095
0.6329670329670329,5.794632089315898
0.6527472527472528,5.777510641190731
0.6725274725274726,5.760915017297529
0.6923076923076923,5.744915342925163
0.7120879120879121,5.729579829910123
0.7318681318681318,5.714974426344183
0.7516483516483516,5.701162467529971
0.7714285714285715,5.688204331027091
0.7912087912087912,5.6761570988078605
0.810989010989011,5.665074229677725
0.8307692307692308,5.655005245203298
0.8505494505494506,5.645995432424507
0.8703296703296702,5.638085566600077
0.8901098901098901,5.631311657144914
0.9098901098901099,5.625704719760715
0.9296703296703297,5.6212905775374
0.9494505494505494,5.618089693516016
0.9692307692307692,5.616117036856349
0.989010989010989,5.615381984353153
1.0087912087912088,5.615888258601355
1.0285714285714287,5.617633903633651
1.0483516483516484,5.620611298355879
1.0681318681318681,5.624807207599055
1.087912087912088,5.630202870104843
1.1076923076923075,5.636774122277295
1.1274725274725275,5.644491556079554
1.1472527472527472,5.653320709040882
1.1670329670329669,5.663222283976954
1.1868131868131868,5.674152395721238
1.2065934065934065,5.686062841923268
1.2263736263736265,5.698901394793547
1.2461538461538462,5.712612110565036
1.2659340659340659,5.727135653396234
1.2857142857142858,5.742409630457677
1.3054945054945055,5.75836893501653
1.3252747252747252,5.774946094456812
1.3450549450549452,5.792071620338866
1.3648351648351649,5.809674357801679
1.3846153846153846,5.827681831839723
1.4043956043956045,5.8460205882316885
1.4241758241758242,5.864616527156659
1.443956043956044,5.883395227794991
1.4637362637362636,5.902282262471615
1.4835164835164834,5.921203499152413
1.5032967032967033,5.940085391345985
1.523076923076923,5.958855254689161
1.542857142857143,5.977441529703472
1.5626373626373626,5.995774030398532
1.5824175824175823,6.013784178566732
1.6021978021978023,6.031405223760884
1.621978021978022,6.048572449072819
1.6417582417582417,6.065223362937106
1.6615384615384616,6.081297877270801
1.6813186813186813,6.09673847232878
1.7010989010989013,6.11149034870632
1.720879120879121,6.1255015669571495
1.7406593406593405,6.1387231753185985
1.7604395604395604,6.151109326046266
1.7802197802197801,6.162617380861242
1.7999999999999998,6.173208006004085
1.8197802197802198,6.182845257373202
1.8395604395604395,6.191496656201889
1.8593406593406594,6.199133255699736
1.879120879120879,6.205729699050338
1.8989010989010988,6.211264269120365
1.9186813186813187,6.215718930194717
1.9384615384615385,6.219079362009908
1.9582417582417584,6.221334986313477
1.978021978021978,6.2224789861313585
1.9978021978021978,6.2225083178781935
2.0175824175824175,6.221423716398231
2.0373626373626372,6.219229692976368
2.0571428571428574,6.215934526310826
2.076923076923077,6.2115502463910195
2.096703296703297,6.206092611176528
2.1164835164835165,6.199581075926099
2.1362637362637362,6.192038754979556
2.1560439560439564,6.183492375750633
2.175824175824176,6.173972224645755
2.195604395604396,6.163512084582733
2.215384615384615,6.152149163745198
2.2351648351648348,6.139924015173764
2.254945054945055,6.126880446764215
2.2747252747252746,6.113065421217431
2.2945054945054943,6.098528945466217
2.314285714285714,6.083323949091731
2.3340659340659338,6.067506151238227
2.353846153846154,6.051133915540581
2.3736263736263736,6.03426809259583
2.3934065934065933,6.016971849539444
2.413186813186813,5.99931048633074
2.4329670329670328,5.981351238410849
2.452747252747253,5.9631630654730365
2.4725274725274726,5.944816426179555
2.4923076923076923,5.926383038773108
2.512087912087912,5.907935627664912
2.5318681318681318,5.889547656235762
2.5516483516483515,5.871293046261404
2.5714285714285716,5.853245884567744
2.5912087912087913,5.835480117734312
2.610989010989011,5.818069235893137
2.6307692307692307,5.801085946912015
2.6505494505494505,5.784601842502636
2.6703296703296706,5.76868705804935
2.6901098901098903,5.753409928209432
2.70989010989011,5.738836640582413
2.7296703296703297,5.725030889978946
2.7494505494505495,5.71205353603017
2.769230769230769,5.6999622670591865
2.7890109890109893,5.688811273279448
2.808791208791209,5.678650932483092
2.8285714285714287,5.6695275114287345
2.8483516483516484,5.661482886127566
2.8681318681318677,5.654554284154073
2.887912087912088,5.648774051971841
2.9076923076923076,5.644169450063374
2.9274725274725273,5.640762478389142
2.947252747252747,5.638569734377702
2.9670329670329667,5.637602305271886
2.986813186813187,5.637865696234408
3.0065934065934066,5.639359795158367
3.0263736263736263,5.642078874646941
3.046153846153846,5.646011631132514
3.0659340659340657,5.651141260612919
3.085714285714286,5.6574455700027215
3.1054945054945056,5.66489712264441
3.1252747252747253,5.673463416106412
3.145054945054945,5.683107090025249
3.1648351648351647,5.693786161431809
3.184615384615385,5.705454284745714
3.2043956043956046,5.718061033427989
3.2241758241758243,5.731552200154046
3.243956043956044,5.745870112303779
3.2637362637362637,5.760953959562325
3.2835164835164834,5.776740130477493
3.3032967032967036,5.793162554924202
3.3230769230769233,5.810153049573536
3.342857142857143,5.827641663649217
3.3626373626373627,5.845557022467161
3.3824175824175824,5.863826666488616
3.4021978021978025,5.882377383865469
3.4219780219780223,5.9011355347111385
3.441758241758242,5.920027365585686
3.4615384615384617,5.938979312934123
3.481318681318681,5.957918294456813
3.501098901098901,5.976771987618194
3.520879120879121,5.995469094710075
3.5406593406593405,6.013939594078111
3.5604395604395602,6.032114977291997
3.58021978021978,6.049928472192161
3.5999999999999996,6.067315251876752
3.61978021978022,6.084212629804613
3.6395604395604395,6.100560241281757
3.659340659340659,6.116300211673292
3.679120879120879,6.131377311739723
3.6989010989010986,6.145739100538782
3.718681318681319,6.159336056361453
3.7384615384615385,6.17212169618688
3.758241758241758,6.184052684145026
3.7780219780219784,6.195088929471413
3.7978021978021976,6.205193674424694
3.8175824175824173,6.214333572618249
3.8373626373626375,6.222478758190454
3.8571428571428568,6.229602906207827
3.876923076923077,6.235683284660088
3.896703296703296,6.240700798368261
3.916483516483517,6.244640025086065
3.936263736263736,6.247489244032186
3.956043956043956,6.249240457046892
3.9758241758241755,6.249889402520749
3.9956043956043956,6.249435562197384
4.015384615384615,6.247882160905427
4.035164835164835,6.245236159227949
4.054945054945055,6.241508239071176
4.0747252747252745,6.236712782047564
4.094505494505494,6.230867840542874
4.114285714285715,6.223995101291859
4.134065934065934,6.216119841243352
4.153846153846154,6.207270875454182
4.173626373626373,6.197480496710653
4.193406593406594,6.186784406539758
4.213186813186813,6.17522163723788
4.232967032967033,6.162834464515088
4.252747252747253,6.149668310327366
4.2725274725274724,6.13577163545037
4.292307692307692,6.121195821334898
4.312087912087913,6.105995040780023
4.331868131868132,6.090226116963816
4.351648351648352,6.073948370386701
4.371428571428571,6.057223453309233
4.391208791208792,6.040115171305835
4.410989010989011,6.022689291610946
4.43076923076923,6.005013338004701
4.450549450549451,5.987156372072823
4.4703296703296695,5.96918876078188
4.49010989010989,5.951181930435875
4.50989010989011,5.933208107224462
4.52967032967033,5.915340044737041
4.549450549450549,5.8976507389993555
4.569230769230769,5.8802131317888255
4.589010989010989,5.863099803201243
4.608791208791209,5.846382654669034
4.628571428571428,5.830132583870153
4.648351648351649,5.814419153209265
4.6681318681318675,5.799310253796438
4.687912087912088,5.784871767085726
4.707692307692308,5.771167226561309
4.7274725274725276,5.758257482064323
4.747252747252747,5.7462003695329935
4.767032967032967,5.735050389073628
4.786813186813187,5.724858394384664
4.806593406593407,5.715671296612726
4.826373626373626,5.707531785723634
4.846153846153847,5.700478072418132
4.8659340659340655,5.694543653508454
4.885714285714286,5.689757103497242
4.905494505494506,5.68614189486552
4.9252747252747255,5.6837162492837505
4.945054945054945,5.682493021615872
4.964835164835165,5.682479618195708
4.984615384615385,5.683677950428858
5.004395604395604,5.686084424319935
5.024175824175824,5.689689966056792
5.043956043956045,5.69448008331152
5.0637362637362635,5.700434961455513
5.083516483516483,5.7075295934426125
5.103296703296703,5.715733941703299
5.123076923076923,5.725013130021939
5.142857142857143,5.735327663046803
5.162637362637362,5.746633670815498
5.182417582417583,5.758883175469614
5.2021978021978015,5.772024377185349
5.221978021978022,5.786001956259662
5.241758241758242,5.800757388264327
5.2615384615384615,5.816229269208066
5.281318681318681,5.832353647725384
5.301098901098901,5.849064361433815
5.320879120879121,5.86629337476236
5.340659340659341,5.8839711157451635
5.36043956043956,5.902026809489618
5.380219780219781,5.92038880625885
5.3999999999999995,5.9389849023491434
5.41978021978022,5.957742652186218
5.43956043956044,5.9765896703055095
5.4593406593406595,5.995453922115631
5.479120879120879,6.014264002566888
5.498901098901099,6.032949402055672
5.518681318681319,6.0514407590875585
5.538461538461538,6.06967009939606
5.558241758241758,6.087571061369012
5.578021978021979,6.105079107770291
5.5978021978021975,6.122131723861051
5.617582417582418,6.138668602122478
5.637362637362637,6.154631813862278
5.6571428571428575,6.1699659680504695
5.676923076923077,6.184618357778284
5.696703296703297,6.198539094767819
5.716483516483517,6.2116812323819595
5.736263736263735,6.224000877593903
5.756043956043956,6.235457292376519
5.775824175824176,6.24601298496326
5.795604395604395,6.255633791417224
5.815384615384615,6.264288947923082
5.835164835164835,6.271951154189843
5.854945054945055,6.278596628321009
5.874725274725275,6.284205153474074
5.894505494505494,6.288760116593601
5.914285714285715,6.292248539462299
5.934065934065933,6.294661102272781
5.953846153846154,6.295992159879952
5.973626373626374,6.2962397508499945
5.993406593406593,6.295405599377756
6.013186813186813,6.293495110099315
6.032967032967033,6.290517355782466
6.052747252747253,6.286485057832777
6.072527472527473,6.281414559509957
6.092307692307692,6.275325791705583
6.112087912087913,6.2682422310922545
6.131868131868131,6.260190850413749
6.151648351648352,6.2512020606478345
6.171428571428572,6.24130964473794
6.191208791208791,6.230550682557507
6.210989010989011,6.218965466741862
6.230769230769231,6.206597408999014
6.2505494505494505,6.19349293649122
6.270329670329671,6.179701377867557
6.29010989010989,6.165274838522093
6.309890109890111,6.150268064656034
6.329670329670329,6.134738295735248
6.349450549450549,6.118745104958794
6.36923076923077,6.10235022739011
6.3890109890109885,6.085617375452615
6.408791208791209,6.0686120415556495
6.428571428571428,6.051401287697101
6.4483516483516485,6.034053521985958
6.468131868131868,6.016638262142311
6.487912087912088,5.999225886164561
6.507692307692308,5.981887370503715
6.527472527472527,5.964694016251528
6.547252747252747,5.9477171640332935
6.567032967032967,5.931027898494119
6.5868131868131865,5.914696743478156
6.606593406593407,5.898793349220236
6.626373626373626,5.883386173094742
6.6461538461538465,5.868542155692874
6.665934065934065,5.854326394221871
6.685714285714286,5.840801815431642
6.705494505494506,5.828028850470417
6.725274725274725,5.816065114243733
6.745054945054945,5.8049650919949105
6.764835164835165,5.794779835932383
6.7846153846153845,5.785556674794913
6.804395604395605,5.7773389392635535
6.824175824175824,5.770165706095927
6.8439560439560445,5.764071563769901
6.863736263736263,5.759086402279294
6.883516483516484,5.755235229524072
6.903296703296704,5.752538016483015
6.923076923076923,5.751009573052825
6.942857142857143,5.750659456088968
6.962637362637362,5.751491910798527
6.9824175824175825,5.753505846221661
7.002197802197802,5.756694845106832
7.021978021978022,5.76104720804587
7.041758241758242,5.766546031298971
7.061538461538461,5.773169317318285
7.081318681318681,5.780890116581292
7.101098901098901,5.789676698981367
7.1208791208791204,5.799492752701179
7.140659340659341,5.810297608219645
7.16043956043956,5.82204648488224
7.1802197802197805,5.834690757297435
7.199999999999999,5.848178238712346
7.21978021978022,5.862453478465568
7.23956043956044,5.877458070613816
7.259340659340659,5.893130970875784
7.279120879120879,5.909408819128698
7.298901098901099,5.926226264822447
7.318681318681318,5.943516292838459
7.338461538461539,5.961210547507471
7.358241758241758,5.979239652706924
7.3780219780219785,5.99753352617677
7.397802197802197,6.016021686417831
7.417582417582418,6.034633550762638
7.437362637362638,6.05329872343071
7.457142857142857,6.071947272594752
7.476923076923077,6.09050999568693
7.496703296703297,6.108918672363969
7.516483516483516,6.12710630472328
7.536263736263736,6.145007344518567
7.556043956043957,6.162557907263089
7.575824175824176,6.17969597322911
7.595604395604395,6.196361575456332
7.615384615384615,6.212496974968403
7.635164835164835,6.228046823467431
7.654945054945055,6.242958313831636
7.674725274725275,6.257181318783205
7.694505494505494,6.270668518122092
7.7142857142857135,6.283375514939304
7.734065934065935,6.295260941230602
7.753846153846154,6.306286553330166
7.7736263736263735,6.316417317574775
7.793406593406592,6.325621486593255
7.813186813186814,6.333870666594533
7.832967032967034,6.341139876001859
7.852747252747252,6.3474075957503295
7.872527472527472,6.352655811532115
7.892307692307693,6.356870048237654
7.912087912087912,6.360039396803506
7.931868131868132,6.362156533638328
7.951648351648351,6.363217732757646
7.971428571428572,6.363222870717366
7.991208791208791,6.362175424394123
8.010989010989011,6.360082461618843
8.03076923076923,6.3569546246287265
8.05054945054945,6.352806106261567
8.07032967032967,6.3476546187762395
8.09010989010989,6.341521355144364
8.10989010989011,6.33443094262027
8.129670329670331,6.326411388361052
8.149450549450549,6.317494016835197
8.169230769230769,6.307713398727767
8.189010989010988,6.297107271023531
8.20879120879121,6.285716447926631
8.22857142857143,6.273584722257639
8.248351648351647,6.2607587569570535
8.268131868131867,6.2472879663188765
8.287912087912087,6.2332243865804715
8.307692307692308,6.218622535506025
8.327472527472528,6.203539260621923
8.347252747252746,6.188033575794341
8.367032967032966,6.172166485883266
8.386813186813187,6.156000799264278
8.406593406593407,6.1396009280807
8.426373626373627,6.123032676174558
8.446153846153845,6.106363014746725
8.465934065934066,6.089659845913838
8.485714285714286,6.072991754463287
8.505494505494505,6.05642774825655
8.525274725274725,6.040036987894989
8.545054945054945,6.023888506439453
8.564835164835165,6.008050920163984
8.584615384615384,5.992592131521363
8.604395604395604,5.977579025701874
8.624175824175826,5.963077162371968
8.643956043956043,5.949150464382295
8.663736263736263,5.935860905430074
8.683516483516483,5.923268198843006
8.703296703296704,5.911429489815836
8.723076923076924,5.90039905356986
8.742857142857142,5.890228002014921
8.762637362637362,5.880964001566111
8.782417582417583,5.872651004800728
8.802197802197803,5.86532899862788
8.821978021978023,5.85903377158349
8.84175824175824,5.8537967027528905
8.86153846153846,5.849644574662959
8.881318681318682,5.846599412276165
8.901098901098901,5.844678349962763
8.920879120879121,5.843893528029131
8.940659340659339,5.844252020045911
8.96043956043956,5.845755791855575
8.98021978021978,5.848401692754694
9.0,5.852181478949488
9.01978021978022,5.85708186898434
9.03956043956044,5.863084630451527
9.05934065934066,5.870166696915057
9.079120879120879,5.878300313631882
9.098901098901099,5.887453210336964
9.11868131868132,5.897588799080919
9.138461538461538,5.90866639487653
9.158241758241758,5.9206414567252095
9.178021978021977,5.933465846459515
9.197802197802199,5.947088102753232
9.217582417582419,5.961453727614422
9.237362637362637,5.9765054826876565
9.257142857142856,5.992183692745086
9.276923076923078,6.00842655383764
9.296703296703297,6.02517044370218
9.316483516483517,6.04235023217268
9.336263736263735,6.059899589516677
9.356043956043957,6.077751290807548
9.375824175824176,6.095837514642453
9.395604395604396,6.11409013471985
9.415384615384616,6.132441002995001
9.435164835164835,6.150822223332459
9.454945054945055,6.169166414767369
9.474725274725275,6.1874069636705915
9.494505494505495,6.205478264282718
9.514285714285714,6.223315947238527
9.534065934065934,6.2408570958441985
9.553846153846154,6.258040449995298
9.573626373626373,6.274806597732456
9.593406593406593,6.291098154525891
9.613186813186815,6.306859930458003
9.632967032967032,6.322039085537766
9.652747252747252,6.336585273430955
9.672527472527472,6.350450773928527
9.692307692307693,6.363590614502144
9.712087912087913,6.375962681312151
9.731868131868131,6.387527820040672
9.75164835164835,6.398249926921664
9.771428571428572,6.408096030331788
9.791208791208792,6.41703636329203
9.810989010989012,6.425044427210862
9.83076923076923,6.4320970471761765
9.850549450549451,6.438174419075862
9.87032967032967,6.443260148797095
9.89010989010989,6.44734128372131
9.90989010989011,6.450408336697856
9.92967032967033,6.452455302643051
9.94945054945055,6.453479667874673
9.96923076923077,6.453482412254332
9.989010989010989,6.452468004172197
10.008791208791209,6.450444388370929
10.028571428571428,6.447422966567943
10.048351648351648,6.443418570798496
10.068131868131868,6.438449429366015
10.08791208791209,6.432537125251664
10.107692307692307,6.425706546802297
10.127472527472527,6.417985830485063
10.147252747252747,6.409406295469148
10.167032967032966,6.400002369769677
10.186813186813188,6.389811507668001
10.206593406593406,6.378874098105403
10.226373626373626,6.3672333637353855
10.246153846153845,6.35493525031406
10.265934065934067,6.34202830610852
10.285714285714286,6.328563551011649
10.305494505494504,6.31459433506873
10.325274725274724,6.300176186147174
10.345054945054946,6.285366646517996
10.364835164835165,6.2702250981651195
10.384615384615385,6.2548125766991225
10.404395604395603,6.23919157382507
10.424175824175824,6.223425828400374
10.443956043956044,6.207580106219116
10.463736263736264,6.19171996877343
10.483516483516484,6.175911531370351
10.503296703296703,6.160221211123693
10.523076923076923,6.144715465493406
10.542857142857143,6.129460522208738
10.562637362637362,6.114522101583593
10.582417582417584,6.099965132410988
10.602197802197802,6.085853462804688
10.621978021978022,6.0722495675368515
10.641758241758241,6.059214253596626
10.661538461538463,6.046806365861446
10.681318681318682,6.035082494925892
10.7010989010989,6.024096689266975
10.72087912087912,6.013900174035045
10.740659340659342,6.004541078841048
10.760439560439561,5.996064176959333
10.780219780219781,5.988510638376263
10.799999999999999,5.981917799086292
10.819780219780219,5.9763189489652975
10.83956043956044,5.9717431404361045
10.85934065934066,5.968215019982514
