Frequency (Hz),Amplitude
0.0,6.930153634908875
0.04,6.933256719557931
0.08,6.942545402617322
0.12,6.9579582940178835
0.16,6.979394139931682
0.19999999999999998,7.006713374819868
0.24,7.039740212588425
0.27999999999999997,7.078265201928138
0.32,7.122048158380588
0.36,7.1708213784868065
0.39999999999999997,7.2242930395243175
0.44,7.282150691368186
0.48,7.344064754133652
0.52,7.409691945474183
0.5599999999999999,7.4786785736408286
0.6,7.550663645613349
0.64,7.6252817528688945
0.6799999999999999,7.702165709915895
0.72,7.780948932047823
0.76,7.861267548521068
0.7999999999999999,7.942762255371568
0.84,8.025079918340326
0.88,8.10787494097349
0.9199999999999999,8.190810416067285
0.96,8.27355908045244
1.0,8.355804093883732
1.04,8.437239662741135
1.0799999999999998,8.517571528565993
1.1199999999999999,8.596517340330994
1.1600000000000001,8.673806927929432
1.2,8.749182492792848
1.24,8.822398729904265
1.28,8.893222893839953
1.3199999999999998,8.96143481989993
1.3599999999999999,9.026826909910246
1.4,9.089204090922276
1.44,9.148383753805268
1.48,9.204195677633066
1.52,9.256481944801104
1.5599999999999998,9.305096850969525
1.5999999999999999,9.349906813203997
1.64,9.390790279067076
1.68,9.427637638889617
1.72,9.460351143012032
1.76,9.488844825419967
1.7999999999999998,9.513044434896749
1.8399999999999999,9.532887374567817
1.88,9.54832265051081
1.92,9.559310829941731
1.9599999999999997,9.565824009355088
2.0,9.567845792887981
2.0399999999999996,9.565371281088225
2.08,9.55840707018936
2.12,9.546971261925405
2.1599999999999997,9.531093483849942
2.2,9.51081492005275
2.2399999999999998,9.486188352087039
2.28,9.457278209826232
2.3200000000000003,9.424160631855102
2.36,9.386923534859871
2.4,9.34566669130865
2.44,9.300501814500057
2.48,9.251552649795729
2.5199999999999996,9.19895507053325
2.56,9.142857176729443
2.6,9.083419394220618
2.6399999999999997,9.020814571334759
2.68,8.955228069540034
2.7199999999999998,8.886857843753564
2.76,8.815914507113694
2.8,8.742621374010167
2.84,8.667214474023307
2.88,8.589942528144801
2.92,8.511066877243422
2.96,8.430861351213252
2.9999999999999996,8.349612065623663
3.04,8.267617131020673
3.08,8.18518625836506
3.1199999999999997,8.102640242515017
3.16,8.020310304274913
3.1999999999999997,7.938537270471399
3.2399999999999998,7.857670570946094
3.28,7.77806703146241
3.32,7.700089442527433
3.36,7.624104886258076
3.4,7.550482806902952
3.44,7.479592815675268
3.4799999999999995,7.4118022273144035
3.52,7.347473334348927
3.5599999999999996,7.286960435332881
3.5999999999999996,7.23060664516459
3.64,7.178740528576625
3.6799999999999997,7.131672611405375
3.7199999999999998,7.089691837504117
3.76,7.053062051179786
3.7999999999999994,7.022018594731684
3.84,6.996765116961822
3.88,6.977470690437574
3.9199999999999995,6.964267332090178
3.96,6.957248013070937
4.0,6.95646522976961
4.04,6.961930189141264
4.079999999999999,6.973612639087101
4.12,6.9914413500785155
4.16,7.0153052292270806
4.199999999999999,7.045055024357885
4.24,7.080505554962882
4.28,7.1214383904933545
4.319999999999999,7.167604885150511
4.36,7.218729472499158
4.4,7.274513122720589
4.4399999999999995,7.334636869573792
4.4799999999999995,7.3987653222786935
4.5200000000000005,7.46655008852427
4.56,7.537633047542919
4.6,7.611649425648245
4.640000000000001,7.688230639916607
4.68,7.767006888103471
4.72,7.847609473931541
4.76,7.929672866274616
4.8,8.012836498370044
4.84,8.096746319041799
4.88,8.181056112127274
4.92,8.265428603058835
4.96,8.349536373077566
5.0,8.433062602080977
5.039999999999999,8.515701660852041
5.08,8.597159572585536
5.12,8.677154362396601
5.159999999999999,8.755416312011894
5.2,8.831688135224992
5.24,8.905725088036057
5.279999999999999,8.97729502575929
5.319999999999999,9.046178417818735
5.36,9.11216832949509
5.3999999999999995,9.175070378552004
5.4399999999999995,9.234702673469249
5.48,9.290895738943014
5.52,9.343492433377365
5.56,9.39234786227813
5.6,9.437329290761902
5.64,9.478316057798212
5.68,9.51519949430086
5.72,9.547882846764576
5.76,9.57628120779482
5.8,9.600321454591755
5.84,9.619942196215309
5.879999999999999,9.635093730268066
5.92,9.64573800947908
5.96,9.65184861854726
5.999999999999999,9.653410761501464
6.04,9.650421259749583
6.08,9.642888560915576
6.119999999999999,9.63083275849524
6.16,9.614285622294567
6.2,9.593290639542012
6.239999999999999,9.567903066483774
6.279999999999999,9.5381899901728
6.32,9.50423040004178
6.359999999999999,9.466115268701726
6.3999999999999995,9.423947641223013
6.44,9.377842731927966
6.4799999999999995,9.327928027443821
6.52,9.274343394423445
6.56,9.21724118992793
6.6,9.156786371969481
6.64,9.093156607123165
6.68,9.02654237142086
6.72,8.957147039928122
6.76,8.885186959464942
6.8,8.810891497855003
6.84,8.734503061870466
6.88,8.656277074679313
6.92,8.576481902106506
6.959999999999999,8.495398715404706
7.0,8.413321276523163
7.04,8.330555630110322
7.08,8.24741968475051
7.119999999999999,8.164242664307503
7.16,8.081364408843479
7.199999999999999,7.999134503547857
7.239999999999999,7.917911213623875
7.28,7.8380602033490465
7.32,7.759953018778778
7.359999999999999,7.683965316044021
7.3999999999999995,7.610474821142897
7.4399999999999995,7.539859012752657
7.4799999999999995,7.472492527042712
7.52,7.408744292805158
7.5600000000000005,7.348974416352507
7.599999999999999,7.293530848303792
7.64,7.242745878125571
7.68,7.19693251642879
7.719999999999999,7.156380838653874
7.76,7.121354375845091
7.800000000000001,7.092086647573684
7.839999999999999,7.068777937590145
7.88,7.051592413497733
7.92,7.0406556869650165
7.959999999999999,7.036052900480399
8.0,7.037827410649009
8.040000000000001,7.045980117329806
8.08,7.060469463786069
8.12,7.081212107123945
8.159999999999998,7.108084232468718
8.2,7.1409234604126635
8.24,7.179531276885274
8.28,7.223675898983956
8.32,7.273095480203519
8.36,7.3275015541245665
8.399999999999999,7.386582616670872
8.44,7.450007752821579
8.48,7.517430223178882
8.52,7.588490937918862
8.56,7.662821759252751
8.6,7.740048587556893
8.639999999999999,7.819794199919216
8.68,7.901680822336043
8.72,7.985332427729845
8.76,8.070376761103404
8.8,8.156447100426737
8.84,8.243183767331345
8.879999999999999,8.330235405515538
8.92,8.417260047156466
8.959999999999999,8.503925988815313
9.0,8.589912498552971
9.040000000000001,8.674910375470498
9.079999999999998,8.758622381854536
9.12,8.8407635667165
9.16,8.92106149790826
9.2,8.999256418289537
9.24,9.07510133969967
9.280000000000001,9.148362086811431
9.32,9.21881730136061
9.36,9.286258415779857
9.399999999999999,9.350489603933594
9.44,9.411327715459265
9.48,9.468602199167428
9.52,9.52215502003422
9.559999999999999,9.571840573525716
9.6,9.617525600314575
9.639999999999999,9.659089103873635
9.68,9.696422272947874
9.72,9.729428410503454
9.76,9.75802287042054
9.8,9.782133002924695
9.84,9.801698109530998
9.879999999999999,9.81666940809688
9.92,9.82701000843689
9.959999999999999,9.832694898837293
10.0,9.833710943714918
10.04,9.83005689258652
10.079999999999998,9.821743400446314
10.12,9.808793059585286
10.16,9.791240442820442
10.2,9.769132158029922
10.24,9.742526913805827
10.280000000000001,9.711495595933549
10.319999999999999,9.67612135427916
10.36,9.63649969950713
10.4,9.592738608851754
10.44,9.544958639919221
10.48,9.493293051192945
10.52,9.437887927543212
10.559999999999999,9.378902308591481
10.6,9.3165083172386
10.639999999999999,9.250891285021153
10.68,9.182249870199536
10.72,9.110796163591527
10.76,9.036755776135374
10.799999999999999,8.960367900987032
10.84,8.881885341621608
10.879999999999999,8.80157449591922
10.92,8.719715284577932
10.96,8.636601010430303
11.0,8.552538133377904
11.04,8.467845943752232
11.08,8.382856115034436
11.12,8.297912115121662
11.16,8.213368453847522
11.2,8.129589743412899
11.24,8.046949547963195
11.28,7.9658289989894735
11.319999999999999,7.886615154792126
11.36,7.809699085193447
11.4,7.7354736672795505
11.44,7.664331084413023
11.48,7.596660029233023
11.52,7.532842621879921
11.559999999999999,7.473251067117211
11.6,7.418244088041527
11.64,7.368163189107292
11.68,7.323328816438239
11.72,7.2840364978243635
11.759999999999998,7.25055305721387
11.799999999999999,7.223113007640616
11.84,7.20191523117398
11.879999999999999,7.187120053649552
11.92,7.1788468150136975
11.96,7.1771720229687155
11.999999999999998,7.182128158691014
12.04,7.193703179748681
12.08,7.211840738510053
12.12,7.236441106209042
12.16,7.267362765458425
12.200000000000001,7.304424609333116
12.239999999999998,7.3474086648311285
12.28,7.396063243733693
12.32,7.450106415231932
12.36,7.509229692185388
12.4,7.573101826026338
12.44,7.641372613220066
12.479999999999999,7.713676627679205
12.52,7.789636807357653
12.559999999999999,7.868867838201938
12.6,7.950979293645105
12.64,8.035578502029677
12.68,8.12227312711814
12.719999999999999,8.21067345780418
12.76,8.300394412095573
12.799999999999999,8.391057267391897
12.84,8.4822911341442
12.88,8.573734193360535
12.92,8.665034720358289
12.959999999999999,8.75585191792417
12.999999999999998,8.845856581882664
13.04,8.934731621229481
13.08,9.022172453663506
13.12,9.107887295722525
13.16,9.191597364932777
13.2,9.273037009529101
13.239999999999998,9.351953779470728
13.28,9.428108450724801
13.32,9.501275013153307
13.36,9.571240630840974
13.4,9.637805582353552
13.44,9.700783187219082
13.479999999999999,9.75999972387587
13.52,9.815294343421746
13.559999999999999,9.866518982719361
13.6,9.913538279749705
13.64,9.956229493548765
13.68,9.994482430597477
13.719999999999999,10.028199379151381
13.76,10.057295052682612
13.799999999999999,10.081696543352324
13.84,10.10134328622761
13.88,10.116187034794214
13.919999999999998,10.126191848187455
13.959999999999999,10.131334090461621
14.0,10.131602442135701
14.04,10.126997924185309
14.08,10.117533934590282
14.120000000000001,10.103236297489822
14.16,10.084143324936067
14.2,10.060305891166857
14.239999999999998,10.031787519233514
14.28,9.998664479712485
14.32,9.961025901094404
14.36,9.918973891272076
14.399999999999999,9.872623669331665
14.44,9.822103706579451
14.479999999999999,9.76755587539898
14.52,9.709135604118531
14.56,9.647012035563684
14.6,9.58136818636049
14.64,9.512401103326471
14.68,9.4403220124245
14.719999999999999,9.365356454743807
14.76,9.287744402798968
14.799999999999999,9.207740349091106
14.84,9.125613357348305
14.879999999999999,9.041647065154445
14.919999999999998,8.956139624795854
14.959999999999999,8.869403567125987
15.0,8.78176557110849
15.04,8.693566119510262
15.079999999999998,8.605159019066704
15.120000000000001,8.516910761452955
15.159999999999998,8.42919969972496
15.199999999999998,8.342415013742102
15.24,8.256955437687159
15.28,8.173227723436685
15.319999999999999,8.091644815508657
15.36,8.012623716939489
15.399999999999999,7.936583031017581
15.439999999999998,7.86394017157333
15.48,7.795108244646555
15.52,7.730492616824733
15.559999999999999,7.670487200169578
15.600000000000001,7.615470499977338
15.639999999999999,7.565801488919792
15.679999999999998,7.521815388374554
15.72,7.483819453710091
15.76,7.452088873510132
15.799999999999999,7.426862901728354
15.84,7.40834134520863
15.879999999999999,7.396681525850672
15.919999999999998,7.391995826399752
15.96,7.394349911474457
16.0,7.403761691796396
16.04,7.4202010710952875
16.080000000000002,7.443590483816831
16.12,7.4738061998710705
16.16,7.510680342596875
16.200000000000003,7.5540035400389165
16.24,7.603528109235913
16.279999999999998,7.658971659579111
16.319999999999997,7.7200209948029554
16.36,7.786336193535658
16.4,7.857554754734149
16.439999999999998,7.9332957055334425
16.48,8.01316358363051
16.52,8.096752222845375
16.56,8.183648287622436
16.6,8.273434518835964
16.64,8.365692668498024
16.68,8.46000611427035
16.72,8.555962155749976
16.759999999999998,8.65315400324842
16.799999999999997,8.751182476302558
16.84,8.849657433643895
16.88,8.948198959085222
16.919999999999998,9.046438329061557
16.96,9.144018787689445
17.0,9.240596154468
17.04,9.335839288387604
17.080000000000002,9.429430430449782
17.12,9.521065444607686
17.16,9.610453975045042
17.2,9.697319535624686
17.24,9.78139954532706
17.279999999999998,9.862445321613842
17.32,9.94022204192122
17.36,10.01450868192661
17.4,10.085097937845863
17.44,10.151796138802176
17.48,10.214423154254323
17.52,10.272812300568232
17.56,10.326810250050148
17.6,10.376276945115428
17.64,10.421085519732294
17.68,10.46112222983914
17.72,10.496286394075897
17.759999999999998,10.526490345881433
17.799999999999997,10.551659397780137
17.84,10.5717318185012
17.88,10.586658823435597
17.919999999999998,10.59640457882939
17.96,10.600946220031503
18.0,10.600273884052237
18.04,10.59439075663901
18.080000000000002,10.583313134033022
18.12,10.567070499527562
18.159999999999997,10.545705614900656
18.2,10.519274626734298
18.24,10.487847187554076
18.279999999999998,10.451506591618129
18.32,10.410349925045708
18.36,10.364488229793787
18.4,10.314046680754785
18.44,10.259164774948204
18.48,10.199996531400577
18.52,10.136710699836852
18.560000000000002,10.069490975726662
18.6,9.998536218521997
18.64,9.924060669070911
18.679999999999996,9.846294161174441
18.72,9.765482321051202
18.759999999999998,9.681886747067743
18.799999999999997,9.595785160465711
18.84,9.507471515958429
18.88,9.417256058975688
18.919999999999998,9.325465314013778
18.96,9.232441986022929
19.0,9.138544754080757
19.04,9.044147933833758
19.080000000000002,8.949640982447267
19.119999999999997,8.855427817241342
19.159999999999997,8.761925917006254
19.2,8.669565173443083
19.24,8.57878645957265
19.279999999999998,8.490039882661153
19.32,8.403782691623114
19.36,8.320476813394878
19.4,8.240585999819205
19.44,8.164572576464186
19.48,8.092893797707584
19.52,8.025997828333338
19.560000000000002,7.964319390515941
19.6,7.908275135772866
19.639999999999997,7.858258823227621
19.68,7.814636406949899
19.72,7.77774115450996
19.759999999999998,7.7478689342938685
19.8,7.7252738186624015
19.84,7.710164152023358
19.88,7.702699226140482
19.919999999999998,7.702986689063584
19.96,7.711080789359655
20.0,7.726981525212143
20.04,7.750634730633225
20.08,7.781933091315385
20.119999999999997,7.820718043632251
20.159999999999997,7.86678247498932
20.2,7.919874114673372
20.24,7.9796994833685675
20.279999999999998,8.045928257513184
20.32,8.11819790166395
20.36,8.196118427201501
20.4,8.27927714762832
20.44,8.36724331759131
20.48,8.459572562703142
20.52,8.555811028436016
20.560000000000002,8.655499197271252
20.599999999999998,8.758175342706958
20.639999999999997,8.863378605829002
20.68,8.97065169447024
20.72,9.079543216358756
20.759999999999998,9.189609666165163
20.8,9.300417092246262
20.84,9.411542472493505
20.88,9.522574830420497
20.92,9.633116122859827
20.96,9.742781929756044
21.0,9.851201974866207
21.04,9.958020503988857
21.08,10.062896544860724
21.119999999999997,10.165504070261537
21.159999999999997,10.265532083280997
21.2,10.362684641218852
21.24,10.456680832270406
21.279999999999998,10.547254717030741
21.32,10.634155244949199
21.36,10.717146154185
21.4,10.796005861848863
21.44,10.870527350352775
21.48,10.940518054514289
21.52,11.005799753154971
21.56,11.06620846817698
21.599999999999998,11.121594373478608
21.639999999999997,11.17182171556175
21.68,11.216768747276218
21.72,11.256327675822197
21.759999999999998,11.290404625880416
21.8,11.318919618547836
21.84,11.341806566614274
21.88,11.35901328661321
21.92,11.370501528009731
21.96,11.376247019842538
22.0,11.376239535108262
22.04,11.370482973158639
22.08,11.358995460367625
22.119999999999997,11.341809469310746
22.16,11.31897195667539
22.2,11.290544520082252
22.24,11.256603573936626
22.28,11.21724054433556
22.32,11.17256208292296
22.36,11.12269029939932
22.4,11.0677630121423
22.44,11.007934016065146
22.48,10.943373366414892
22.519999999999996,10.87426767667232
22.56,10.80082042804011
22.599999999999998,10.723252287169652
22.639999999999997,10.641801427755608
22.68,10.556723850392252
22.72,10.468293693608127
22.759999999999998,10.376803527247514
22.8,10.282564617322603
22.84,10.185907149097767
22.88,10.087180392475709
22.92,9.986752790735903
22.96,9.885011950351542
23.0,9.782364506033236
23.04,9.679235831404057
23.08,9.576069561939216
23.119999999999997,9.473326893200266
23.16,9.371485614224927
23.2,9.271038833543956
23.24,9.172493354110916
23.28,9.076367653952039
23.32,8.983189432134086
23.36,8.893492685298261
23.400000000000002,8.807814289085973
23.44,8.726690071757098
23.479999999999997,8.650650384456231
23.519999999999996,8.580215193901802
23.56,8.515888748335085
23.599999999999998,8.458153895448488
23.639999999999997,8.407466160234279
23.68,8.364247719229953
23.72,8.328881433010253
23.759999999999998,8.30170511826809
23.8,8.28300625176974
23.84,8.273017298613546
23.88,8.271911845117256
23.92,8.279801691982117
23.96,8.296735027131355
23.999999999999996,8.322695752123007
24.04,8.357603984743609
24.08,8.401317707473552
24.119999999999997,8.453635481344028
24.16,8.514300101276099
24.2,8.583003035438324
24.24,8.659389469411353
24.28,8.743063766605358
24.32,8.833595158776358
24.36,8.930523492954132
24.400000000000002,9.033364881278413
24.439999999999998,9.141617125498792
24.479999999999997,9.25476481562887
24.52,9.37228403016431
24.56,9.493646591556383
24.599999999999998,9.618323853991868
24.64,9.74579002020794
24.68,9.875524999764332
24.72,10.007016832964576
24.759999999999998,10.139763712776997
24.8,10.273275642124858
24.84,10.40707576633603
24.88,10.540701420917914
24.92,10.673704933670614
24.959999999999997,10.805654217927545
24.999999999999996,10.936133190801353
25.04,11.064742047023095
25.08,11.191097415530546
25.119999999999997,11.314832422562352
25.16,11.435596681768764
25.2,11.553056228835468
25.24,11.666893415378862
25.28,11.776806774428826
25.32,11.882510867669824
25.36,11.983736122752807
25.4,12.080228667399474
25.439999999999998,12.17175016567507
25.479999999999997,12.258077660679795
25.52,12.33900342697766
25.56,12.414334835320101
25.599999999999998,12.483894231607426
25.64,12.547518831542895
25.68,12.605060632053334
25.72,12.65638634026017
25.76,12.701377320570694
25.8,12.739929560309156
25.84,12.771953654209579
25.880000000000003,12.79737480803794
25.919999999999998,12.816132861592237
25.959999999999997,12.828182331338205
25.999999999999996,12.833492472969656
26.04,12.832047364230176
26.08,12.823846008392218
26.119999999999997,12.808902458855489
26.16,12.787245965394085
26.2,12.758921142646257
26.24,12.723988161496264
26.28,12.682522964038428
26.32,12.6346175028324
26.36,12.580380005146951
26.4,12.519935262838011
26.439999999999998,12.45342494840288
26.479999999999997,12.381007957582709
26.52,12.302860778632308
26.56,12.219177888020097
26.599999999999998,12.130172171837458
26.64,12.036075371558137
26.68,11.937138551961255
26.72,11.833632587979638
26.76,11.725848665914375
26.8,11.61409879282099
26.84,11.498716305870465
26.88,11.380056371066171
26.919999999999998,11.258496457802083
26.959999999999997,11.134436772329744
27.0,11.008300629220935
27.04,10.88053473534948
27.08,10.751609355775832
27.119999999999997,10.622018325252006
27.16,10.492278862982232
27.2,10.36293114196682
27.24,10.234537558015765
27.28,10.107681637764832
27.32,9.982966520325405
27.36,9.86101294427618
27.4,9.742456671443291
27.439999999999998,9.627945282334112
27.479999999999997,9.518134286286475
27.52,9.413682503449792
27.56,9.315246696547652
27.599999999999998,9.223475458555118
27.64,9.139002397957059
27.68,9.062438705333673
27.72,8.994365231841178
27.76,8.935324258808398
27.8,8.88581118418015
27.839999999999996,8.84626639111995
27.88,8.817067591618104
27.919999999999998,8.798522948661576
27.959999999999997,8.790865270774754
28.0,8.794247540808668
28.04,8.808739987488218
28.08,8.834328836845907
28.12,8.870916797119182
28.16,8.918325242508587
28.2,8.976297976572797
28.240000000000002,9.044506382620163
28.28,9.12255571227832
28.32,9.209992228162443
28.359999999999996,9.306310903247907
28.4,9.410963386734938
28.439999999999998,9.523365970475727
28.479999999999997,9.64290732682732
28.52,9.768955833090757
28.56,9.900866344760168
28.599999999999998,10.037986325648939
28.64,10.179661284614355
28.68,10.325239504174561
28.72,10.474076074897045
28.76,10.625536270930601
