Time (s),Filtered Signal
0.0,0.004888632421555372
0.03337004405286344,-0.07807816860697125
0.06674008810572687,-0.12360661583550124
0.10011013215859031,-0.11390235058547497
0.13348017621145375,-0.06044049399327125
0.16685022026431717,0.001427716373338992
0.20022026431718062,0.03006520137089612
0.23359030837004408,-0.0016409631123074514
0.2669603524229075,-0.09272549043901553
0.3003303964757709,-0.21441168623440443
0.33370044052863435,-0.3235841326975226
0.3670704845814978,-0.38224970246222884
0.40044052863436125,-0.3731979705139625
0.43381057268722467,-0.30470194035475895
0.46718061674008815,-0.2032254293211592
0.5005506607929515,-0.09920513762172228
0.533920704845815,-0.013796689056395696
0.5672907488986785,0.04715051162246414
0.6006607929515418,0.090282304316292
0.6340308370044053,0.12626057472617147
0.6674008810572687,0.1611083580492949
0.7007709251101322,0.191932136475478
0.7341409691629956,0.20847905705437464
0.767511013215859,0.1987908656031277
0.8008810572687225,0.1555836657182999
0.834251101321586,0.08035269157413936
0.8676211453744493,-0.01614931134813187
0.9009911894273128,-0.11665297260097389
0.9343612334801763,-0.20189763590930157
0.9677312775330397,-0.2553661623854954
1.001101321585903,-0.26704077860941994
1.0344713656387665,-0.23545970499529542
1.06784140969163,-0.16771563733022524
1.1012114537444935,-0.07738933701501093
1.134581497797357,0.019100609770786377
1.1679515418502202,0.10669482952968282
1.2013215859030837,0.17508691890981892
1.2346916299559472,0.2202074259081839
1.2680616740088106,0.24349822143395858
1.3014317180616741,0.24965328072616194
1.3348017621145374,0.24408940954764372
1.3681718061674009,0.23128049392108363
1.4015418502202643,0.21437184547400734
1.4349118942731278,0.19566930234967522
1.4682819383259913,0.1771643778044611
1.5016519823788548,0.16041552070838008
1.535022026431718,0.14569781980707566
1.5683920704845815,0.1309777804921089
1.601762114537445,0.11157944285013033
1.6351321585903085,0.08118262561495822
1.668502202643172,0.03412978789038476
1.7018722466960352,-0.03172528365977713
1.7352422907488987,-0.11280022150181679
1.7686123348017622,-0.1992346641559448
1.8019823788546256,-0.27647243695522705
1.8353524229074891,-0.32871253989727106
1.8687224669603526,-0.3433275755293166
1.9020925110132159,-0.3149321208894678
1.9354625550660793,-0.2477020515593401
1.9688325991189428,-0.15493267608731182
2.002202643171806,-0.05570992862170468
2.0355726872246698,0.03029691661589385
2.068942731277533,0.08806253440091312
2.1023127753303967,0.11055113578524749
2.13568281938326,0.09916015658832315
2.1690528634361232,0.06159923412408213
2.202422907488987,0.008609116624614188
2.23579295154185,-0.0488829575225099
2.269162995594714,-0.1012850600425882
2.302533039647577,-0.14073172715025623
2.3359030837004404,-0.16124867821279312
2.369273127753304,-0.1594825634784208
2.4026431718061674,-0.13596642232238637
2.436013215859031,-0.09598749225482164
2.4693832599118943,-0.04886474078843974
2.5027533039647576,-0.005156469848679013
2.5361233480176213,0.02734709880501957
2.5694933920704845,0.04690101402953692
2.6028634361233483,0.058395395920179054
2.6362334801762115,0.07057416395498971
2.6696035242290748,0.09111219861892268
2.7029735682819385,0.1221809434188966
2.7363436123348017,0.15908172239646343
2.7697136563876654,0.19291949431275543
2.8030837004405287,0.21596690520574935
2.8364537444933924,0.22664801774074206
2.8698237885462556,0.2309997205917591
2.903193832599119,0.2392162272520082
2.9365638766519826,0.25860891547698545
2.969933920704846,0.28658234830871515
3.0033039647577096,0.30774868254302057
3.036674008810573,0.2976395122142925
3.070044052863436,0.23232496311874612
3.1034140969162998,0.10013861811420156
3.136784140969163,-0.08978141963656078
3.1701541850220267,-0.30646199484695213
3.20352422907489,-0.5048452361824111
3.2368942731277532,-0.6398073172346191
3.270264317180617,-0.6811337984869555
3.30363436123348,-0.6235801851503054
3.337004405286344,-0.4880818432665334
3.370374449339207,-0.3137782760874522
3.4037444933920704,-0.14424104751234212
3.437114537444934,-0.013533884612952093
3.4704845814977974,0.06251489586221567
3.503854625550661,0.08710449623954299
3.5372246696035243,0.0764171123471805
3.5705947136563876,0.050881245932627474
3.6039647577092513,0.028491817733509065
3.6373348017621145,0.022753255526039653
3.6707048458149782,0.04421229001864787
3.7040748898678415,0.10191590553457192
3.737444933920705,0.2013535885797447
3.7708149779735685,0.33855452579583933
3.8041850220264317,0.49397575238611857
3.8375550660792954,0.6317448668999701
3.8709251101321587,0.7079003212798834
3.9042951541850224,0.6861728965363915
3.9376651982378856,0.5545580401784805
3.971035242290749,0.3339635343238314
4.004405286343612,0.07331572159312964
4.037775330396476,-0.16771653671723122
4.0711453744493395,-0.34061129416789754
4.104515418502203,-0.42422231653272136
4.137885462555066,-0.4281807631441419
4.171255506607929,-0.38314476997635344
4.2046255506607935,-0.32413350125113205
4.237995594713657,-0.27585380802660475
4.27136563876652,-0.24660458276195726
4.304735682819383,-0.23183521577249094
4.3381057268722465,-0.2231328224654306
4.371475770925111,-0.21621295509282062
4.404845814977974,-0.21322619996882042
4.438215859030837,-0.2189079082227159
4.4715859030837,-0.2340906583731138
4.504955947136564,-0.2515559779824092
4.538325991189428,-0.2574545600981158
4.571696035242291,-0.23780457197113164
4.605066079295154,-0.1862195872242028
4.638436123348018,-0.1080805262413602
4.671806167400881,-0.01842708150134022
4.705176211453745,0.0653622991114743
4.738546255506608,0.1318665808423231
4.7719162995594715,0.18010154866759856
4.805286343612335,0.2177668611518157
4.838656387665198,0.2546256788855366
4.872026431718062,0.2952010289826195
4.905396475770925,0.33516739724473904
4.938766519823789,0.36341807842197066
4.972136563876652,0.3683825104804351
5.005506607929515,0.344806569993594
5.038876651982379,0.2971632837751288
5.072246696035243,0.2379640512989054
5.105616740088106,0.18213145476888384
5.138986784140969,0.1406095662373186
5.172356828193832,0.11650602068541707
5.2057268722466965,0.10539283722692573
5.23909691629956,0.09900990646308926
5.272466960352423,0.08988322401572972
5.305837004405286,0.07419292854825488
5.3392070484581495,0.05158546470237345
5.372577092511014,0.022642639973485142
5.405947136563877,-0.013812627917913439
5.43931718061674,-0.06133606251380286
5.4726872246696034,-0.12354866811657395
5.506057268722468,-0.20003287065791917
5.539427312775331,-0.2830044102566171
5.572797356828194,-0.35727483110761443
5.606167400881057,-0.4044254180797126
5.639537444933921,-0.4097981734007393
5.672907488986785,-0.36913657072516226
5.706277533039648,-0.29149528869907826
5.739647577092511,-0.1966082396091426
5.7730176211453745,-0.10755414197430747
5.806387665198238,-0.041970610923721625
5.839757709251102,-0.005938952716393674
5.873127753303965,0.006593079686940346
5.9064977973568284,0.008811052249154256
5.939867841409692,0.013313364203828771
5.973237885462555,0.025856790849971858
6.006607929515419,0.04373831657251899
6.039977973568282,0.05921457069234825
6.073348017621146,0.0654689341652706
6.106718061674009,0.0613186845994617
6.140088105726872,0.05185461911620484
6.173458149779736,0.044868548934133244
6.2068281938325995,0.045590535494359034
6.240198237885463,0.053275528600444766
6.273568281938326,0.06192566595682538
6.306938325991189,0.06471572095496261
6.3403083700440535,0.05924290993391268
6.373678414096917,0.050112138221665894
6.40704845814978,0.04697076941280066
6.440418502202643,0.058885304463428684
6.4737885462555065,0.08817774124147698
6.507158590308371,0.12723467192052146
6.540528634361234,0.16026965645164226
6.573898678414097,0.16952182748708175
6.60726872246696,0.14322136094850427
6.640638766519824,0.08178828867896602
6.674008810572688,-0.0005929537177373242
6.707378854625551,-0.080034011154468
6.740748898678414,-0.13136763944940752
6.774118942731278,-0.13779319629393513
6.807488986784141,-0.09785682364146159
6.840859030837005,-0.026664743887827115
6.874229074889868,0.049596473684254384
6.9075991189427315,0.10394244465722335
6.940969162995595,0.11951978065790793
6.974339207048458,0.09644815200488098
7.007709251101322,0.05142192946122468
7.041079295154185,0.010074675677572876
7.074449339207049,-0.004594913289023108
7.107819383259912,0.017396449230142996
7.141189427312775,0.06841195105741973
7.174559471365639,0.1262792134414471
7.207929515418503,0.16351445394756542
7.241299559471366,0.15855889115929886
7.274669603524229,0.10434278678463857
7.308039647577092,0.010993633078045148
7.3414096916299565,-0.0978829074823016
7.37477973568282,-0.19348277117378657
7.408149779735683,-0.25143171117647234
7.441519823788546,-0.25952088407758633
7.47488986784141,-0.22126988684695142
7.508259911894274,-0.15447705412098597
7.541629955947137,-0.08540902059818184
7.575,-0.04051384321091217
7.608370044052863,-0.03822526005921129
7.641740088105728,-0.08331712107198336
7.675110132158591,-0.16536050736140617
7.708480176211454,-0.26149436223711
7.741850220264317,-0.3425108794646504
7.775220264317181,-0.3805755833628485
7.808590308370045,-0.35674741658653986
7.841960352422908,-0.26658442003161065
7.875330396475771,-0.12236380604361193
7.9087004405286345,0.04906306516285132
7.942070484581498,0.21279607986282675
7.975440528634362,0.3354060153877388
8.008810572687224,0.3947003425384294
8.042180616740088,0.386390445901248
8.075550660792953,0.3250171865945645
8.108920704845815,0.23844939342580834
8.142290748898679,0.15778447486380098
8.175660792951541,0.10646315538536132
8.209030837004406,0.09288183769645529
8.24240088105727,0.10938696896237399
8.275770925110132,0.13779064734842802
8.309140969162996,0.15869435038382063
8.342511013215859,0.16031757480294032
8.375881057268723,0.1429764795572969
8.409251101321587,0.11757882800651506
8.44262114537445,0.09932410845892958
8.475991189427313,0.09981551872753286
8.509361233480176,0.12114437739050109
8.54273127753304,0.1542723327965723
8.576101321585904,0.1820205264134539
8.609471365638766,0.1851644460818717
8.64284140969163,0.14919546393331995
8.676211453744493,0.06939895721751484
8.709581497797357,-0.04724788393512927
8.742951541850221,-0.18368763155477386
8.776321585903084,-0.3171719337264174
8.809691629955948,-0.4250120593168179
8.84306167400881,-0.490058406574533
8.876431718061674,-0.5044932942604852
8.909801762114538,-0.4710611367548654
8.9431718061674,-0.40157317969348577
8.976541850220265,-0.31323329181450543
9.009911894273127,-0.2238636492124252
9.043281938325991,-0.14734781955357118
9.076651982378856,-0.09052169237964547
9.110022026431718,-0.052355791502589025
9.143392070484582,-0.02563705704521203
9.176762114537445,-0.0005801931259580787
9.210132158590309,0.030901937745187336
9.243502202643173,0.07185694704325796
9.276872246696035,0.1191736683937507
9.3102422907489,0.1651032221441745
9.343612334801762,0.20072686515421934
9.376982378854626,0.21983505241096074
9.41035242290749,0.22152153635106717
9.443722466960352,0.21041331576097339
9.477092511013216,0.19456762899140526
9.510462555066079,0.18213325276183123
9.543832599118943,0.17836679145328063
9.577202643171807,0.18427163267800264
9.61057268722467,0.19717300973074903
9.643942731277534,0.21249379567775675
9.677312775330396,0.22545721644417577
9.71068281938326,0.2317320428109903
9.744052863436124,0.22696000492548243
9.777422907488987,0.2060446568425901
9.81079295154185,0.163378312182192
9.844162995594713,0.09459787572095757
9.877533039647577,-0.0006465983874469852
9.910903083700441,-0.11632704914897066
9.944273127753304,-0.239586216524291
9.977643171806168,-0.3529140241762405
10.01101321585903,-0.43843443029898593
10.044383259911895,-0.48278874481587747
10.077753303964759,-0.480814762240596
10.111123348017621,-0.4367068733055491
10.144493392070485,-0.36230646032415725
10.177863436123348,-0.2731881592653205
10.211233480176212,-0.18392345906511612
10.244603524229076,-0.10412670827260985
10.277973568281938,-0.03658627235223516
10.311343612334802,0.021942019261697195
10.344713656387665,0.07763570208840928
10.378083700440529,0.13541705979747984
10.411453744493393,0.1953922044987271
10.444823788546255,0.2515516877239866
10.47819383259912,0.29360552557193637
10.511563876651982,0.31152773523259875
10.544933920704846,0.3009995932169617
10.57830396475771,0.2671350153993362
10.611674008810573,0.2242226192837453
10.645044052863437,0.19081913703331405
10.678414096916299,0.1817832762053289
10.711784140969163,0.2006585111182355
10.745154185022027,0.23615747706338508
10.77852422907489,0.26498582296649226
10.811894273127754,0.2604410829663932
10.845264317180618,0.20343654690459395
10.87863436123348,0.0912216605775519
10.912004405286345,-0.06014377566125621
10.945374449339207,-0.22084077522014606
10.978744493392071,-0.3578252064063824
11.012114537444935,-0.4463908727676647
11.045484581497798,-0.47794579769095036
11.078854625550662,-0.46101159116921403
11.112224669603524,-0.41554960568962107
11.145594713656388,-0.36358362367049357
11.178964757709252,-0.3204102561831979
11.212334801762115,-0.28996604971771706
11.245704845814979,-0.2656774372443551
11.279074889867841,-0.23557134617530787
11.312444933920705,-0.18879947960392768
11.34581497797357,-0.12063676108041343
11.379185022026432,-0.03421775549548889
11.412555066079296,0.06103679730291045
11.445925110132158,0.15303546622254008
11.479295154185023,0.23093995611770937
11.512665198237887,0.2880227134152526
11.546035242290749,0.32288118666073634
11.579405286343613,0.3391674928660924
11.612775330396476,0.34430200752114326
11.64614537444934,0.3474868020019154
11.679515418502204,0.35705148788492125
11.712885462555066,0.37722678051307734
11.74625550660793,0.40505211108657596
11.779625550660793,0.4289111551736395
11.812995594713657,0.4303655209956594
11.846365638766521,0.38992194137050784
11.879735682819383,0.29531987513790836
11.913105726872248,0.14894966088473025
11.94647577092511,-0.029520933341200182
11.979845814977974,-0.20759760244570064
12.013215859030838,-0.350521934552755
12.0465859030837,-0.4337737299683432
12.079955947136565,-0.4520114517676075
12.113325991189427,-0.4203602538395067
12.146696035242291,-0.3674454113329964
12.180066079295155,-0.3233264500258079
12.213436123348018,-0.30762420048770467
12.246806167400882,-0.322714566040246
12.280176211453744,-0.3543123217130923
12.313546255506608,-0.3784911346803953
12.346916299559473,-0.37173147280616436
12.380286343612335,-0.3198737393610344
12.413656387665199,-0.22285751651606092
12.447026431718061,-0.09411178928465001
12.480396475770926,0.044520009306617155
12.51376651982379,0.17008688357673904
12.547136563876652,0.26543093237302434
12.580506607929516,0.3234934303608907
12.613876651982379,0.3478649687556214
12.647246696035243,0.3496963728258596
12.680616740088107,0.34228507161012445
12.71398678414097,0.3354324010764662
12.747356828193833,0.33173780736427627
12.780726872246696,0.32624366517670245
12.81409691629956,0.3094826081815412
12.847466960352424,0.2725477606236001
12.880837004405286,0.21194776591909642
12.91420704845815,0.13212564636772378
12.947577092511013,0.0445494761490308
12.980947136563877,-0.03625593662049178
13.014317180616741,-0.09809934736755878
13.047687224669604,-0.13571300027782368
13.081057268722468,-0.1526222679708641
13.11442731277533,-0.15946037623865286
13.147797356828194,-0.16936737518337738
13.181167400881058,-0.19237560880877086
13.21453744493392,-0.23114925215811624
13.247907488986785,-0.279842776727707
13.281277533039647,-0.32642077773203376
13.314647577092511,-0.35723050943634277
13.348017621145376,-0.3617200306626014
13.381387665198238,-0.3353806204672233
13.414757709251102,-0.2800856990287062
13.448127753303964,-0.20232421294767972
13.481497797356829,-0.11063892311097827
13.514867841409693,-0.013530441754658487
13.548237885462555,0.0815999270146579
13.58160792951542,0.16865060458832254
13.614977973568282,0.24268907608395002
13.648348017621146,0.2998796632361197
13.68171806167401,0.33755375708702834
13.715088105726872,0.35438218440299557
13.748458149779736,0.35071123538304305
13.781828193832599,0.3291634002505946
13.815198237885463,0.2952982822511038
13.848568281938327,0.2575975122721525
13.88193832599119,0.22583604909756855
13.915308370044054,0.2075702028031349
13.948678414096916,0.2039194289575006
13.98204845814978,0.20711845678896063
14.015418502202644,0.20224040428312942
14.048788546255507,0.17351707877090466
14.08215859030837,0.11269086897003708
14.115528634361233,0.024783604849763788
14.148898678414097,-0.07271027991504167
14.182268722466961,-0.15779057406766617
14.215638766519824,-0.21531332083608404
14.249008810572688,-0.24543877671611752
14.28237885462555,-0.26395852397279473
14.315748898678414,-0.2936690907746012
14.349118942731279,-0.351114382979775
14.382488986784141,-0.43586076826449166
14.415859030837005,-0.5282508124262838
14.449229074889868,-0.5970067628492167
14.482599118942732,-0.6128050223708938
14.515969162995596,-0.5609912722626132
14.549339207048458,-0.4474398299353215
14.582709251101322,-0.2954262725175639
14.616079295154185,-0.13591981667021755
14.649449339207049,0.003554119383531544
14.682819383259913,0.1065695290545439
14.716189427312775,0.1697043439350114
14.74955947136564,0.19967245681451448
14.782929515418502,0.20864443560452303
14.816299559471366,0.2105399165022785
14.84966960352423,0.21921845299473006
14.883039647577093,0.247430557357776
14.916409691629957,0.3046371437123595
14.94977973568282,0.39296323560097574
14.983149779735683,0.5028480778550444
15.016519823788547,0.6116585670594009
15.04988986784141,0.6880918742156532
15.083259911894274,0.7023869803236379
15.116629955947138,0.6386590768783433
15.15,0.5034139496586179
15.183370044052865,0.32523269577895547
15.216740088105727,0.14465794316823477
15.250110132158591,-0.0015800468395763486
15.283480176211455,-0.09459467937859425
15.316850220264318,-0.13885947647125066
15.350220264317182,-0.15681122754158244
15.383590308370044,-0.17583674879763073
15.416960352422908,-0.2146717309054683
15.450330396475772,-0.27592738495474367
15.483700440528635,-0.3475477457313972
15.517070484581499,-0.4110617161036846
15.550440528634361,-0.4514314884045867
15.583810572687225,-0.46349388275939374
15.61718061674009,-0.45269250398286137
15.650550660792952,-0.43098526485928174
15.683920704845816,-0.41069085295032404
15.717290748898678,-0.3990649676675431
15.750660792951543,-0.39525406494787513
15.784030837004407,-0.390056910826198
15.817400881057269,-0.3682752063970233
15.850770925110133,-0.31323033574754855
15.884140969162996,-0.21272386352823075
15.91751101321586,-0.06501549319145569
15.950881057268724,0.11738308675408383
15.984251101321586,0.30834395647758006
16.01762114537445,0.47414882425896165
16.050991189427315,0.5835201179147488
16.084361233480177,0.6180482620993211
16.11773127753304,0.5786795560372373
16.151101321585905,0.4853068418109232
16.184471365638768,0.36938369720947023
16.21784140969163,0.2624463513126044
16.251211453744492,0.18510191798905978
16.284581497797358,0.1407710672283995
16.31795154185022,0.11648863568010578
16.351321585903083,0.09023504323143408
16.38469162995595,0.041696740712882416
16.41806167400881,-0.03799788272154808
16.451431718061674,-0.14160425983506023
16.48480176211454,-0.2480879444074832
16.518171806167402,-0.3309002096918685
16.551541850220264,-0.3685535503772543
16.584911894273127,-0.3528750554431165
16.618281938325993,-0.2914898786942074
16.651651982378855,-0.20385429038295047
16.685022026431717,-0.11312308363504744
16.718392070484583,-0.03780908503434126
16.751762114537446,0.013191123761731729
16.785132158590308,0.040708838780345674
16.818502202643174,0.051593634635258755
16.851872246696036,0.05385676157601203
16.8852422907489,0.053334113139898984
16.91861233480176,0.053118397685731907
16.951982378854627,0.05514767292380742
16.98535242290749,0.062123383429721145
17.01872246696035,0.07798716476495776
17.052092511013218,0.10636407803684134
17.08546255506608,0.14789440294329534
17.118832599118942,0.19827766835409383
17.152202643171808,0.24858660384513467
17.18557268722467,0.28813099528592845
17.218942731277533,0.3086173273268117
