Frequency (Hz),Amplitude
0.0,2.6316465758973777
0.020066889632107024,2.6318232498616374
0.04013377926421405,2.632352548383928
0.060200668896321065,2.6332323052106186
0.0802675585284281,2.63445892274135
0.10033444816053512,2.63602739113356
0.12040133779264213,2.637931314793125
0.14046822742474915,2.6401629460012797
0.1605351170568562,2.642713225364407
0.1806020066889632,2.6455718287155605
0.20066889632107024,2.648727220045344
0.22073578595317725,2.652166709995726
0.24080267558528426,2.655876519414285
0.2608695652173913,2.6598418474381567
0.2809364548494983,2.664046943557206
0.3010033444816054,2.6684751830939843
0.3210702341137124,2.6731091455342564
0.34113712374581934,2.677930695145279
0.3612040133779264,2.682921063329251
0.3812709030100334,2.6880609321759974
0.4013377926421405,2.6933305187006327
0.42140468227424743,2.698709659278535
0.4414715719063545,2.7041778938201304
0.4615384615384615,2.70971454926103
0.4816053511705685,2.7152988219783922
0.5016722408026756,2.720909858780667
0.5217391304347826,2.7265268361551045
0.5418060200668896,2.732129037494232
0.5618729096989966,2.7376959280588054
0.5819397993311036,2.743207227469888
0.6020066889632107,2.7486429795560117
0.6220735785953176,2.753983619413043
0.6421404682274248,2.7592100375635495
0.6622073578595318,2.7643036411293282
0.6822742474916387,2.769246411955099
0.7023411371237458,2.7740209616430556
0.7224080267558528,2.778610583477006
0.7424749163879598,2.78299930123139
0.7625418060200668,2.7871719148743255
0.7826086956521738,2.7911140431854666
0.802675585284281,2.79481216331861
0.8227424749163879,2.7982536473461517
0.8428093645484949,2.8014267958274526
0.862876254180602,2.8043208684464918
0.882943143812709,2.80692611176568
0.903010033444816,2.8092337841426995
0.923076923076923,2.8112361778559007
0.9431438127090299,2.8129266384813114
0.963210702341137,2.8142995815605425
0.983277591973244,2.815350506594553
1.0033444816053512,2.8160760083927934
1.0234113712374582,2.8164737858015276
1.0434782608695652,2.816542647828493
1.0635451505016722,2.8162825171744545
1.0836120401337792,2.815694431175083
1.1036789297658862,2.8147805401493584
1.1237458193979932,2.813544103143543
1.1438127090301002,2.8119894810525836
1.1638795986622072,2.8101221270939005
1.1839464882943145,2.8079485746020088
1.2040133779264215,2.8054764221060906
1.2240802675585283,2.8027143156473597
1.2441471571906353,2.7996719282881033
1.2642140468227423,2.7963599367603464
1.2842809364548495,2.792789995199348
1.3043478260869565,2.7889747059052596
1.3244147157190636,2.7849275870760897
1.3444816053511706,2.7806630374562618
1.3645484949832773,2.776196297847973
1.3846153846153846,2.771543409437346
1.4046822742474916,2.76672116889433
1.4247491638795986,2.761747080214378
1.4448160535117056,2.75663930328137
1.4648829431438126,2.7514165991454704
1.4849498327759196,2.7460982720262175
1.5050167224080266,2.740704108070695
1.5250836120401337,2.735254310918864
1.5451505016722407,2.7297694341533627
1.5652173913043477,2.7242703107387842
1.5852842809364547,2.7187779795861933
1.605351170568562,2.71331360941148
1.625418060200669,2.707898420091469
1.6454849498327757,2.7025536017587823
1.6655518394648827,2.6973002319150976
1.6856187290969897,2.692159190881663
1.705685618729097,2.6871510759460735
1.725752508361204,2.6822961146034103
1.745819397993311,2.67761407732833
1.765886287625418,2.673124190350761
1.7859531772575248,2.668845048941537
1.806020066889632,2.664794531743685
1.826086956521739,2.660989716710263
1.846153846153846,2.657446799228905
1.866220735785953,2.6541810130262027
1.8862876254180598,2.651206554450947
1.9063545150501673,2.6485365107330994
1.926421404682274,2.6461827928050643
1.9464882943143813,2.6441560732528515
1.966555183946488,2.642465729936807
1.9866220735785953,2.6411197957852117
2.0066889632107023,2.640124915218855
2.026755852842809,2.639486307612059
2.0468227424749164,2.6392077381353403
2.0668896321070234,2.63929149625872
2.0869565217391304,2.63973838212324
2.1070234113712374,2.6405477009130327
2.1270903010033444,2.6417172652825216
2.1471571906354514,2.6432434058148675
2.1672240802675584,2.645120989409431
2.1872909698996654,2.647343445420154
2.2073578595317724,2.6499027992939337
2.2274247491638794,2.652789713390284
2.2474916387959865,2.655993534601408
2.267558528428094,2.659502348336901
2.2876254180602005,2.663303038389747
2.3076923076923075,2.667381352161149
2.3277591973244145,2.6717219706912676
2.3478260869565215,2.6763085829211555
2.367892976588629,2.6811239635979915
2.3879598662207355,2.686150054231026
2.408026755852843,2.6913680465088783
2.4280936454849495,2.696758467599268
2.4481605351170566,2.702301266769301
2.468227424749164,2.707975902787513
2.4882943143812706,2.7137614315963194
2.508361204013378,2.719636593775623
2.5284280936454846,2.725579901352862
2.548494983277592,2.731569723552115
2.568561872909699,2.73758437111313
2.5886287625418056,2.743602178850276
2.608695652173913,2.749601586160209
2.6287625418060196,2.7555612152253506
2.648829431438127,2.76145994669697
2.668896321070234,2.7672769926769383
2.688963210702341,2.7729919668502023
2.709030100334448,2.7785849516506653
2.7290969899665547,2.784036562371223
2.749163879598662,2.789328008154136
2.769230769230769,2.7944411498203476
2.789297658862876,2.7993585545163033
2.809364548494983,2.804063547173672
2.82943143812709,2.8085402587919686
2.849498327759197,2.8127736715655125
2.869565217391304,2.816749660885864
2.8896321070234112,2.820455034257648
2.9096989966555182,2.8238775671707805
2.9297658862876252,2.827006035974976
2.9498327759197323,2.8298302478036876
2.9698996655518393,2.8323410675940752
2.9899665551839463,2.8345304422479543
3.0100334448160533,2.8363914219752018
3.0301003344481603,2.8379181788571324
3.0501672240802673,2.8391060226618956
3.0702341137123748,2.839951413937953
3.0903010033444813,2.840451974404898
3.1103678929765888,2.840606494653562
3.1304347826086953,2.8404149391595803
3.1505016722408024,2.8398784486065507
3.1705685618729094,2.838999339506585
3.1906354515050164,2.8377811010978826
3.210702341137124,2.836228389490562
3.2307692307692304,2.834347019024049
3.250836120401338,2.8321439507914854
3.270903010033445,2.829627278279465
3.2909698996655514,2.8268062100646385
3.311036789297659,2.82369104950294
3.3311036789297654,2.8202931713421395
3.351170568561873,2.8166249951846805
3.3712374581939795,2.8126999557251504
3.391304347826087,2.80853246968575
3.411371237458194,2.8041378993737207
3.4314381270903005,2.7995325127874087
3.451505016722408,2.794733440202275
3.471571906354515,2.7897586271753263
3.491638795986622,2.784626783916079
3.511705685618729,2.779357330984771
3.531772575250836,2.7739703412938175
3.551839464882943,2.7684864784072936
3.5719063545150496,2.7629269311549276
3.591973244147157,2.7573133446026206
3.612040133779264,2.75166774744978
3.632107023411371,2.746012475956234
3.652173913043478,2.740370094536438
3.672240802675585,2.734763313197309
3.692307692307692,2.7292149020371217
3.712374581939799,2.723747603066537
3.732441471571906,2.7183840396583308
3.752508361204013,2.7131466239791906
3.7725752508361197,2.7080574628044034
3.7926421404682276,2.7031382621632476
3.8127090301003346,2.6984102313089893
3.832775919732441,2.6938939865510205
3.852842809364548,2.6896094555271715
3.872909698996655,2.6855757825301945
3.8929765886287626,2.6818112355331167
3.9130434782608696,2.6783331155817987
3.933110367892976,2.67515766923942
3.953177257525083,2.6723000047751424
3.9732441471571907,2.6697740127872387
3.9933110367892977,2.6675922919393154
4.013377926421405,2.665766080465626
4.033444816053511,2.66430519406878
4.053511705685618,2.6632179707894004
4.073578595317726,2.662511223373865
4.093645484949833,2.6621901996030894
4.113712374581939,2.6622585509735956
4.133779264214047,2.662718310043304
4.153846153846153,2.663569876669396
4.173913043478261,2.664812013276564
4.193979933110368,2.6664418492019757
4.214046822742475,2.668454894070874
4.234113712374581,2.6708450600651887
4.254180602006689,2.6736046928589365
4.274247491638796,2.676724610910197
4.294314381270903,2.6801941527217212
4.314381270903009,2.68400123161177
4.334448160535117,2.6881323974752602
4.354515050167224,2.69257290496313
4.374581939799331,2.6973067874659455
4.394648829431437,2.702316936256135
4.414715719063545,2.7075851841222773
4.434782608695651,2.7130923928181705
4.454849498327759,2.7188185436483745
4.474916387959866,2.724742830520196
4.494983277591973,2.7308437548087463
4.5150501672240795,2.7370992214054843
4.535117056856188,2.7434866353512652
4.555183946488294,2.7499829984901365
4.575250836120401,2.756565005620096
4.595317725752508,2.7632091396596157
4.615384615384615,2.7698917653935307
4.635451505016722,2.776589221407586
4.655518394648829,2.783277909866863
4.6755852842809364,2.7899343838383595
4.695652173913043,2.796535431901909
4.71571906354515,2.8030581598353543
4.735785953177258,2.809480069199468
4.7558528428093645,2.8157791326845207
4.775919732441471,2.821933866114212
4.795986622073578,2.8279233970328144
4.816053511705686,2.8337275298285705
4.8361204013377925,2.8393268073700573
4.856187290969899,2.8447025691524597
4.8762541806020065,2.8498370059681193
4.896321070234113,2.854713211129662
4.916387959866221,2.8593152282851717
4.936454849498328,2.8636280958734317
4.956521739130435,2.867637888272939
4.976588628762541,2.871331753702207
4.996655518394649,2.8746979489298856
5.016722408026756,2.8777258708530797
5.036789297658863,2.88040608499968
5.056856187290969,2.8827303510068356
5.076923076923077,2.884691645122505
5.096989966555184,2.886284179770603
5.117056856187291,2.8875034202128598
5.137123745819398,2.8883460983324203
5.157190635451505,2.888810223554976
5.177257525083611,2.8888950909139077
5.197324414715719,2.888601286255741
5.217391304347826,2.8879306885720686
5.237458193979933,2.886886469433471
5.257525083612039,2.88547308949055
5.277591973244148,2.883696291996624
5.297658862876254,2.8815630932965597
5.317725752508361,2.8790817702163363
5.337792642140468,2.8762618442785772
5.357859531772575,2.873114062660871
5.377926421404682,2.86965037580598
5.397993311036789,2.8658839115865105
5.418060200668896,2.8618289459214723
5.438127090301003,2.8575008697384945
5.458193979933109,2.8529161521738313
5.478260869565218,2.8480922999024836
5.498327759197324,2.8430478124935608
5.518394648829431,2.8378021336916377
5.538461538461538,2.8323755985329173
5.558528428093646,2.8267893762171616
5.578595317725752,2.8210654086712843
5.598662207357859,2.8152263447598758
5.618729096989966,2.8092954701210453
5.638795986622073,2.8032966326334554
5.65886287625418,2.797254163552326
5.678929765886288,2.7911927943885333
5.698996655518394,2.7851375696457112
5.719063545150501,2.7791137555753567
5.739130434782608,2.773146745159122
5.759197324414716,2.767261959580258
5.7792642140468224,2.761484746502194
5.799331103678929,2.755840275530645
5.8193979933110365,2.750353431295726
5.839464882943144,2.7450487046511873
5.8595317725752505,2.7399500825481606
5.879598662207358,2.73508093719904
5.8996655518394645,2.7304639152024417
5.919732441471571,2.726120827350573
5.9397993311036785,2.722072539884777
5.959866220735786,2.7183388680015637
5.9799331103678925,2.7149384724388885
5.999999999999999,2.7118887599893235
6.020066889632107,2.7092057887919054
6.040133779264214,2.7069041792468167
6.060200668896321,2.704997031376007
6.080267558528428,2.703495849417903
6.100334448160535,2.70241047439568
6.120401337792642,2.701749025336026
6.1404682274247495,2.701517849740366
6.160535117056856,2.701721483823604
6.180602006688963,2.7023626229383955
6.200668896321069,2.703442102497629
6.2207357859531776,2.704958889596111
6.240802675585284,2.7069100854168333
6.260869565217391,2.7092909383900237
6.280936454849498,2.712094867957008
6.301003344481605,2.7153134986780842
6.321070234113712,2.7189367043165715
6.341137123745819,2.7229526614319393
6.361204013377926,2.727347911925523
6.381270903010033,2.7321074339039866
6.40133779264214,2.7372147201600807
6.421404682274248,2.7426518635176174
6.441471571906354,2.7483996482487925
6.461538461538461,2.7544376467468017
6.481605351170568,2.760744320624935
6.501672240802676,2.767297125414297
6.521739130434782,2.7740726180448307
6.54180602006689,2.7810465663180746
6.561872909698996,2.78819405961227
6.581939799331103,2.795489620101525
6.60200668896321,2.8029073138174208
6.622073578595318,2.8104208609335113
6.642140468227424,2.8180037447085913
6.662207357859531,2.825629318582036
6.682274247491639,2.8332709109728493
6.702341137123746,2.840901927392059
6.722408026755852,2.848495949534669
6.742474916387959,2.8560268310718713
6.762541806020066,2.8634687899157556
6.782608695652174,2.8707964967769017
6.80267558528428,2.87798515987942
6.822742474916388,2.8850106057382927
6.842809364548494,2.89184935593963
6.862876254180601,2.8984786998959966
6.882943143812709,2.9048767635762593
6.903010033444816,2.9110225742323697
6.9230769230769225,2.9168961211644713
6.94314381270903,2.92247841258098
6.963210702341137,2.927751528621714
6.983277591973244,2.9326986706205345
7.0033444816053505,2.937304206688985
7.023411371237458,2.941553713704898
7.0434782608695645,2.9454340157898287
7.063545150501672,2.948933219356621
7.083612040133779,2.952040744804199
7.103678929765886,2.954747354930425
7.123745819397993,2.957045180126072
7.143812709030099,2.958927740404078
7.1638795986622075,2.9603899643077742
7.183946488294314,2.961428204730839
7.204013377926421,2.9620402516694746
7.224080267558528,2.9622253419147384
7.2441471571906355,2.961984165679694
7.264214046822742,2.961318870142484
7.2842809364548495,2.9602330598724667
7.304347826086956,2.958731794092769
7.324414715719063,2.956821580718469
7.34448160535117,2.9545103670961215
7.364548494983278,2.951807527356792
7.384615384615384,2.9487238462820144
7.404682274247491,2.9452714995699654
7.424749163879598,2.941464030378129
7.444816053511706,2.9373163220086655
7.464882943143812,2.9328445665944503
7.48494983277592,2.9280662296371083
7.505016722408026,2.9230000102438
7.525083612040134,2.917665796907775
7.545150501672239,2.912084618678306
7.565217391304348,2.906278591570123
7.585284280936455,2.900270860070117
7.605351170568561,2.89408553361125
7.625418060200669,2.887747617900154
7.645484949832775,2.881282941006465
7.665551839464882,2.8747180741488165
7.685618729096991,2.868080247145096
7.705685618729096,2.8613972585329157
7.725752508361204,2.8546973804110727
7.74581939799331,2.848009258103419
7.765886287625418,2.8413618048034817
7.785953177257525,2.834784091420883
7.806020066889631,2.8283052319187068
7.826086956521739,2.821954264503781
7.846153846153847,2.815760029108646
7.866220735785952,2.809751041683445
7.88628762541806,2.80395536589718
7.906354515050166,2.7984004829285287
7.926421404682274,2.7931131601056545
7.946488294314381,2.7881193192296445
7.966555183946488,2.7834439054858664
7.986622073578595,2.779110757908661
8.006688963210701,2.7751424824161974
8.02675585284281,2.771560328471098
8.046822742474916,2.7683840704469733
8.066889632107022,2.765631894789475
8.08695652173913,2.7633202940514776
8.107023411371236,2.7614639688544282
8.127090301003344,2.7600757387812873
8.147157190635452,2.7591664631406574
8.167224080267557,2.7587449724574875
8.187290969899665,2.7588180114437737
8.207357859531772,2.7593901940852636
8.227424749163879,2.760463971348956
8.247491638795987,2.762039611874217
8.267558528428093,2.7641151958606134
8.2876254180602,2.7666866222114495
8.307692307692307,2.769747628836801
8.327759197324415,2.773289825867483
8.347826086956522,2.7773027413850793
8.367892976588628,2.781773879135979
8.387959866220736,2.786688787572374
8.408026755852843,2.7920311394530635
8.42809364548495,2.7977828211426234
8.448160535117056,2.8039240306718143
8.468227424749163,2.810433383564527
8.488294314381271,2.8172880253981596
8.508361204013378,2.8244637500442478
8.528428093645484,2.8319351225340994
8.548494983277592,2.8396756055083237
8.568561872909697,2.847657688238506
8.588628762541806,2.855853017251496
8.608695652173914,2.86423252764018
8.628762541806019,2.872766574206933
8.648829431438127,2.881425061655138
8.668896321070234,2.8901775731180153
8.68896321070234,2.8989934963907342
8.709030100334449,2.907842147309501
8.729096989966555,2.9166928897983673
8.749163879598662,2.9255152521795353
8.769230769230768,2.9342790394148652
8.789297658862875,2.942954441013936
8.809364548494983,2.951512134406907
8.82943143812709,2.9599233836378778
8.849498327759196,2.968160133286154
8.869565217391303,2.976195097568674
8.889632107023411,2.984001844616794
8.909698996655518,2.9915548759546624
8.929765886287624,2.998829701234914
8.949832775919733,3.00580290831056
8.96989966555184,3.01245222873995
8.989966555183946,3.0187565988351017
9.010033444816054,3.0246962163728357
9.030100334448159,3.030252593093332
9.050167224080267,3.035408603112371
9.070234113712376,3.0401485273721334
9.09030100334448,3.0444580942511767
9.110367892976589,3.048324516447442
9.130434782608695,3.051736524239446
9.150501672240802,3.0546843952199962
9.17056856187291,3.0571599805844665
9.190635451505017,3.0591567280421423
9.210702341137123,3.0606697014040174
9.23076923076923,3.061695596884826
9.250836120401337,3.06223275614022
9.270903010033445,3.062281176042792
9.290969899665551,3.061842515182572
9.311036789297658,3.0609200970595323
9.331103678929765,3.059518909916854
9.351170568561873,3.0576456031451893
9.37123745819398,3.055308480169417
9.391304347826086,3.0525174877108827
9.411371237458194,3.0492842013000288
9.4314381270903,3.0456218068969205
9.451505016722408,3.041545078460312
9.471571906354516,3.0370703512904242
9.49163879598662,3.032215490956513
9.511705685618729,3.02699985760786
9.531772575250837,3.021444265456675
9.551839464882942,3.0155709372140227
9.57190635451505,3.0094034532553025
9.591973244147155,3.002966695291439
9.612040133779264,2.9962867843252745
9.632107023411372,2.9893910126814145
9.652173913043477,2.9823077699116265
9.672240802675585,2.975066462398209
9.692307692307692,2.9676974265046883
9.712374581939798,2.960231835157582
9.732441471571907,2.952701597785222
9.752508361204013,2.9451392535902388
9.77257525083612,2.9375778581915277
9.792642140468226,2.930050863739668
9.812709030100335,2.9225919926861006
9.832775919732441,2.9152351054721097
9.852842809364548,2.9080140624957775
9.872909698996656,2.9009625808155506
9.89297658862876,2.894114086154037
9.91304347826087,2.887501560875254
9.933110367892976,2.881157388720007
9.953177257525082,2.875113197195322
9.97324414715719,2.8693996986221517
9.993311036789297,2.864046530948091
10.013377926421404,2.8590820995254087
10.033444816053512,2.854533421136212
10.053511705685617,2.8504259716126232
10.073578595317725,2.8467835384473994
10.093645484949834,2.8436280798170124
10.113712374581938,2.84097959144164
10.133779264214047,2.8388559826839455
10.153846153846153,2.837272963238303
10.17391304347826,2.836243941685793
10.193979933110368,2.8357799370858854
10.214046822742475,2.8358895046467136
10.234113712374581,2.836578676362824
10.254180602006688,2.837850917336243
10.274247491638796,2.8397070983067625
10.294314381270903,2.8421454847154974
10.31438127090301,2.8451617424164226
10.334448160535118,2.8487489599390874
10.354515050167223,2.8528976869973834
10.37458193979933,2.857595988739091
10.394648829431437,2.8628295150434475
10.414715719063544,2.868581584004201
10.434782608695652,2.874833278586025
10.454849498327757,2.8815635553165326
10.474916387959865,2.8887493637759336
10.494983277591974,2.8963657755724905
10.515050167224079,2.904386121445355
10.535117056856187,2.91278213511521
10.555183946488295,2.9215241025074543
10.5752508361204,2.930581014999226
10.595317725752508,2.939920725388958
10.615384615384615,2.9495101053515365
10.635451505016722,2.9593152032213776
10.65551839464883,2.969301401036185
10.675585284280936,2.9794335698726115
10.695652173913043,2.9896762226090634
10.71571906354515,2.9999936633570665
10.735785953177256,3.0103501329088957
10.755852842809364,3.0207099496532557
10.775919732441471,3.0310376455107675
10.795986622073578,3.0412980965353924
10.816053511705684,3.0514566479158334
10.836120401337793,3.061479233191025
10.856187290969899,3.071332487566257
10.876254180602006,3.0809838552800244
