Frequency (Hz),Amplitude
0.0,0.10393174798266358
0.019801980198019802,0.12158221159262134
0.039603960396039604,0.16342549659035135
0.0594059405940594,0.215712745625627
0.07920792079207921,0.27235405641689425
0.09900990099009901,0.3309586768708887
0.1188118811881188,0.39046637464065087
0.13861386138613863,0.45033243842487636
0.15841584158415842,0.510237273542272
0.1782178217821782,0.5699706137971364
0.19801980198019803,0.6293801582679096
0.21782178217821782,0.6883466587661922
0.2376237623762376,0.746770920757488
0.25742574257425743,0.8045666029639464
0.27722772277227725,0.8616560285254692
0.297029702970297,0.9179676480223017
0.31683168316831684,0.9734344515924549
0.33663366336633666,1.0279929484863464
0.3564356435643564,1.0815824977269215
0.37623762376237624,1.1341448625903485
0.39603960396039606,1.1856239115166525
0.4158415841584158,1.2359654170059948
0.43564356435643564,1.285116921377704
0.45544554455445546,1.3330276489244117
0.4752475247524752,1.3796484507128028
0.495049504950495,1.4249317726165533
0.5148514851485149,1.4688316400193173
0.5346534653465347,1.5113036545387342
0.5544554455445545,1.5523049994276699
0.5742574257425742,1.5917944512126265
0.594059405940594,1.629732395766356
0.613861386138614,1.6660808474637152
0.6336633663366337,1.700803470397873
0.6534653465346534,1.7338656008733766
0.6732673267326733,1.765234270568105
0.6930693069306931,1.7948782298893757
0.7128712871287128,1.8227679711485172
0.7326732673267327,1.8488757512540142
0.7524752475247525,1.8731756136826396
0.7722772277227723,1.895643409532818
0.7920792079207921,1.9162568175003576
0.8118811881188118,1.934995362645803
0.8316831683168316,1.9518404338444597
0.8514851485148516,1.966775299829683
0.8712871287128713,1.979785123754382
0.891089108910891,1.9908569762094595
0.9108910891089109,1.9999798466472127
0.9306930693069307,2.007144653168108
0.9504950495049505,2.012344250637291
0.9702970297029703,2.0155734371030194
0.99009900990099,2.0168289584974852
1.00990099009901,2.0161095116047014
1.0297029702970297,2.0134157452873134
1.0495049504950495,2.0087502599679423
1.0693069306930694,2.0021176053671144
1.0891089108910892,1.9935242765052097
1.108910891089109,1.982978707980356
1.1287128712871286,1.9704912665409697
1.1485148514851484,1.9560742419777892
1.1683168316831685,1.9397418363666081
1.188118811881188,1.9215101517010995
1.2079207920792079,1.9013971759639918
1.227722772277228,1.879422767695104
1.2475247524752475,1.855608639125696
1.2673267326732673,1.8299783379659753
1.2871287128712872,1.8025572279462876
1.3069306930693068,1.7733724682372891
1.3267326732673268,1.742452991899496
1.3465346534653466,1.7098294835465717
1.3663366336633662,1.6755343564496
1.3861386138613863,1.6396017293637153
1.405940594059406,1.6020674034298563
1.4257425742574257,1.562968839596444
1.4455445544554455,1.5223451371280583
1.4653465346534653,1.4802370139321201
1.4851485148514851,1.4366867896541915
1.504950495049505,1.3917383727933617
1.5247524752475248,1.345437253505204
1.5445544554455446,1.2978305043399456
1.5643564356435644,1.2489667919872836
1.5841584158415842,1.1988964042831183
1.6039603960396038,1.147671298462221
1.6237623762376237,1.0953451792081788
1.6435643564356437,1.041973618933635
1.6633663366336633,0.9876142387142074
1.683168316831683,0.9323269777435534
1.7029702970297032,0.8761744944397316
1.7227722772277227,0.8192227676619548
1.7425742574257426,0.7615420098304025
1.7623762376237624,0.7032080804117795
1.782178217821782,0.6443047292089713
1.801980198019802,0.5849272696701875
1.8217821782178218,0.5251888293455664
1.8415841584158414,0.46523149547524384
1.8613861386138615,0.40524735649909455
1.881188118811881,0.3455210961809184
1.900990099009901,0.28652390764019137
1.920792079207921,0.22914308605557504
1.9405940594059405,0.17531176044267735
1.9603960396039604,0.1298685484265552
1.98019801980198,0.10467731211164501
2.0,0.11416387438322148
2.01980198019802,0.15194518590608927
2.0396039603960396,0.20268504717757926
2.0594059405940595,0.25873912573636165
2.0792079207920793,0.31714577636849073
2.099009900990099,0.37663938989691237
2.118811881188119,0.43659222761386846
2.1386138613861387,0.4966469357783469
2.1584158415841586,0.5565742728415898
2.1782178217821784,0.6162115682254204
2.1980198019801978,0.6754334807730197
2.217821782178218,0.7341369937194814
2.237623762376238,0.7922332158749317
2.257425742574257,0.8496426651495474
2.2772277227722775,0.9062924382604152
2.297029702970297,0.962114452617349
2.3168316831683167,1.0170443233703859
2.336633663366337,1.0710206303584306
2.3564356435643563,1.123984431901605
2.376237623762376,1.1758789391195827
2.3960396039603964,1.2266492971090344
2.4158415841584158,1.2762424387110622
2.4356435643564356,1.3246069884540348
2.455445544554456,1.371693201690927
2.4752475247524752,1.4174529287178408
2.495049504950495,1.4618395967849942
2.514851485148515,1.5048082049966338
2.5346534653465347,1.5463153285137865
2.5544554455445545,1.5863191294521684
2.5742574257425743,1.624779372553016
2.594059405940594,1.6616574441920502
2.6138613861386135,1.696916373642382
2.633663366336634,1.730520855762493
2.6534653465346536,1.7624372744690342
2.673267326732673,1.7926337264938195
2.6930693069306932,1.8210800450312414
2.712871287128713,1.8477478229611097
2.7326732673267324,1.8726104353952886
2.7524752475247527,1.8956430613431074
2.7722772277227725,1.9168227043292578
2.792079207920792,1.9361282118266745
2.811881188118812,1.9535402933915842
2.8316831683168315,1.9690415374067458
2.8514851485148514,1.982616426354819
2.8712871287128716,1.9942513505571597
2.891089108910891,2.003934620324176
2.910891089108911,2.011656476472816
2.9306930693069306,2.0174090991752913
2.9504950495049505,2.021186615109911
2.9702970297029703,2.022985102891816
2.99009900990099,2.022802596767151
3.00990099009901,2.0206390885599674
3.0297029702970297,2.0164965278663605
3.0495049504950495,2.0103788204957453
3.0693069306930694,2.0022918251644057
3.089108910891089,1.9922433484518944
3.108910891089109,1.980243138036167
3.128712871287129,1.966302874230179
3.148514851485148,1.950436159848348
3.1683168316831685,1.932658508439452
3.1881188118811883,1.9129873309304313
3.2079207920792077,1.891441920735515
3.227722772277228,1.8680434373965455
3.2475247524752473,1.8428148888334845
3.267326732673267,1.8157811123011829
3.2871287128712874,1.7869687541679553
3.3069306930693068,1.756406248656468
3.3267326732673266,1.7241237957188806
3.346534653465347,1.6901533382568155
3.366336633663366,1.6545285389476074
3.386138613861386,1.617284757002854
3.4059405940594063,1.5784590252699031
3.4257425742574257,1.5380900281986998
3.4455445544554455,1.4962180813449901
3.4653465346534653,1.4528851132804506
3.485148514851485,1.4081346510533006
3.504950495049505,1.3620118107170558
3.5247524752475248,1.3145632949684625
3.5445544554455446,1.265837400673701
3.564356435643564,1.215884040120373
3.5841584158415842,1.1647547813721475
3.603960396039604,1.1125029153799058
3.6237623762376234,1.0591835609314533
3.6435643564356437,1.0048538237855924
3.6633663366336635,0.9495730345939098
3.683168316831683,0.8934031034789329
3.702970297029703,0.8364090510136676
3.722772277227723,0.7786598125027822
3.7425742574257423,0.7202294776834881
3.762376237623762,0.6611992467916827
3.7821782178217824,0.6016606098371499
3.801980198019802,0.541720706842783
3.8217821782178216,0.4815117791340953
3.841584158415842,0.42120877004375845
3.8613861386138613,0.36106436879431014
3.881188118811881,0.3014847577223375
3.9009900990099013,0.24321061941216007
3.9207920792079207,0.1878032129398402
3.9405940594059405,0.13908881854641536
3.96039603960396,0.10697606681791726
3.98019801980198,0.10769695980281815
4.0,0.14075656802358444
4.01980198019802,0.1898842448428832
4.03960396039604,0.2454970078449333
4.0594059405940595,0.30390572153310075
4.079207920792079,0.36359706344491405
4.099009900990099,0.42384880454496265
4.118811881188119,0.48426273033260997
4.138613861386139,0.5445899085115854
4.158415841584159,0.6046572617090339
4.178217821782178,0.66433347961063
4.198019801980198,0.7235118504683578
4.217821782178218,0.7821010209899966
4.237623762376238,0.8400197462665743
4.257425742574258,0.8971937712896944
4.2772277227722775,0.9535539101288634
4.297029702970297,1.0090348275950263
4.316831683168317,1.063574248463188
4.336633663366336,1.117112435381984
4.356435643564357,1.1695918403907595
4.376237623762377,1.2209568713554642
4.3960396039603955,1.2711537360879301
4.415841584158416,1.3201303399335669
4.435643564356436,1.3678362207270025
4.455445544554455,1.41422251019107
4.475247524752476,1.4592419142289688
4.4950495049504955,1.5028487068013454
4.514851485148514,1.5449987335976765
4.534653465346535,1.5856494227544105
4.554455445544555,1.6247598006012454
4.574257425742574,1.6622905109326838
4.594059405940594,1.6982038366722
4.613861386138614,1.7324637230656663
4.633663366336633,1.765035801738038
4.653465346534653,1.79588741509408
4.673267326732674,1.8249876406548262
4.693069306930693,1.852307315004553
4.712871287128713,1.877819057087834
4.732673267326733,1.901497290645597
4.752475247524752,1.9233182656181735
4.772277227722772,1.943260078374152
4.792079207920793,1.9613026906482764
4.811881188118812,1.9774279470916427
4.8316831683168315,1.9916195913535448
4.851485148514852,2.003863280627965
4.871287128712871,2.01414659860875
4.891089108910891,2.0224590668071802
4.910891089108912,2.028792154194366
4.930693069306931,2.0331392851373034
4.9504950495049505,2.0354958456051273
4.97029702970297,2.0358591876270076
4.99009900990099,2.034228631989606
5.00990099009901,2.0306054691666264
5.02970297029703,2.0249929584788027
5.0495049504950495,2.0173963254871152
5.069306930693069,2.0078227576281815
5.089108910891089,1.9962813981051406
5.108910891089109,1.98278333805437
5.128712871287129,1.967341607013608
5.148514851485149,1.9499711617247806
5.1683168316831685,1.9306888733125287
5.188118811881188,1.9095135128882863
5.207920792079208,1.8864657356408598
5.227722772277227,1.861568063486619
5.247524752475248,1.8348448663676877
5.267326732673268,1.8063223423050907
5.2871287128712865,1.7760284963364452
5.306930693069307,1.7439931184960722
5.326732673267327,1.7102477610314328
5.346534653465346,1.6748257150952228
5.366336633663367,1.6377619872112803
5.3861386138613865,1.5990932758888765
5.405940594059405,1.5588579488605734
5.425742574257426,1.5170960215520197
5.445544554455446,1.4738491375714868
5.465346534653465,1.4291605522501145
5.485148514851486,1.3830751205973797
5.504950495049505,1.3356392915013338
5.524752475247524,1.2869011106560624
5.544554455445545,1.236910235633143
5.564356435643565,1.1857179678671141
5.584158415841584,1.1333773083187884
5.603960396039604,1.079943046569817
5.623762376237624,1.0254718976712385
5.643564356435643,0.9700227082000693
5.663366336633663,0.9136567643710407
5.683168316831684,0.856438253724635
5.702970297029703,0.7984349634117983
5.7227722772277225,0.7397193529649497
5.742574257425743,0.6803702385614447
5.762376237623762,0.6204755123860715
5.782178217821782,0.5601366890683582
5.801980198019803,0.49947683938758736
5.821782178217822,0.4386551794672933
5.841584158415841,0.37789567817404035
5.861386138613861,0.3175477713681741
5.881188118811881,0.25822842049324063
5.900990099009901,0.20119581523291089
5.920792079207921,0.14945759577108156
5.9405940594059405,0.11104616195915033
5.96039603960396,0.10249279653476748
5.98019801980198,0.1298847458702486
6.0,0.17721973889761275
6.01980198019802,0.23251415030850028
6.03960396039604,0.2911251281002579
6.0594059405940595,0.35123227911155813
6.079207920792079,0.4120033714042862
6.099009900990099,0.4729951404760163
6.118811881188119,0.5339379047745713
6.138613861386139,0.5946480088651133
6.158415841584159,0.6549882284203151
6.178217821782178,0.7148482384999719
6.198019801980198,0.7741342757173857
6.217821782178218,0.8327633438377241
6.237623762376237,0.8906598103377801
6.257425742574258,0.9477533295101428
6.2772277227722775,1.003977535363911
6.297029702970296,1.0592691987717815
6.316831683168317,1.1135676740539278
6.336633663366337,1.1668145312905038
6.356435643564356,1.2189533108379234
6.376237623762377,1.2699293600180608
6.396039603960396,1.3196897261056943
6.415841584158415,1.3681830885034856
6.435643564356436,1.4153597185519224
6.455445544554456,1.4611714590251226
6.475247524752475,1.5055717177472572
6.495049504950495,1.5485154713696192
6.514851485148515,1.58995927644826
6.534653465346534,1.6298612857270496
6.554455445544554,1.6681812680713068
6.574257425742575,1.7048806308827664
6.594059405940594,1.739922444106929
6.6138613861386135,1.7732714651484467
6.633663366336634,1.8048941641623504
6.653465346534653,1.8347587493026298
6.673267326732673,1.8628351915959662
6.693069306930694,1.889095249174473
6.712871287128713,1.9135124906520202
6.732673267326732,1.9360623174686735
6.752475247524753,1.9567219850591777
6.772277227722772,1.9754706227263559
6.792079207920792,1.9922892521205966
6.811881188118813,2.007160804242909
6.8316831683168315,2.0200701349027357
6.851485148514851,2.0310040385732036
6.871287128712871,2.039951260595938
6.891089108910891,2.046902507695973
6.910891089108911,2.0518504567749254
6.930693069306931,2.054789761956672
6.9504950495049505,2.055717059866001
6.97029702970297,2.0546309731262737
6.99009900990099,2.0515321120672048
7.00990099009901,2.046423074639111
7.02970297029703,2.0393084445348912
7.0495049504950495,2.0301947875261894
7.069306930693069,2.0190906460253464
7.089108910891089,2.0060065318905
7.108910891089109,1.9909549174970014
7.128712871287128,1.973950225105016
7.148514851485149,1.9550088145607012
7.1683168316831685,1.9341489693766034
7.188118811881187,1.9113908812470177
7.207920792079208,1.8867566330655152
7.227722772277228,1.8602701805256696
7.247524752475247,1.8319573324031655
7.267326732673268,1.8018457296378079
7.287128712871287,1.7699648233600038
7.306930693069306,1.7363458520383683
7.326732673267327,1.7010218179664591
7.346534653465347,1.6640274633591976
7.366336633663366,1.6253992463981155
7.3861386138613865,1.5851753176543144
7.405940594059406,1.5433954974368504
7.425742574257425,1.5001012547733825
7.445544554455446,1.455335688945378
7.465346534653466,1.4091435147951552
7.485148514851485,1.361571053430751
7.504950495049505,1.3126662305285917
7.524752475247524,1.2624785852509395
7.544554455445544,1.2110592939747093
7.564356435643565,1.1584612147602598
7.584158415841584,1.104738961073918
7.603960396039604,1.0499490172118584
7.623762376237624,0.9941499139829787
7.643564356435643,0.9374024929152768
7.663366336633663,0.8797703030673267
7.683168316831684,0.8213202010280686
7.702970297029703,0.7621232705116318
7.7227722772277225,0.7022562600415725
7.742574257425743,0.641803890314662
7.762376237623762,0.5808626818490559
7.782178217821782,0.5195475695529342
7.801980198019803,0.45800392156635583
7.821782178217822,0.3964307667156254
7.841584158415841,0.3351292372786836
7.861386138613862,0.27461362429717423
7.881188118811881,0.21589735927690246
7.900990099009901,0.1613325690355197
7.92079207920792,0.11725850612297115
7.9405940594059405,0.09914907164120611
7.96039603960396,0.1195540032855228
7.980198019801979,0.16470143895310493
8.0,0.21974313146369118
8.01980198019802,0.27874396053099576
8.03960396039604,0.33948667373089303
8.05940594059406,0.40100528741301783
8.07920792079208,0.4628045179504172
8.099009900990099,0.5245916940769375
8.118811881188119,0.5861718024870137
8.138613861386139,0.6474013986451805
8.158415841584159,0.7081663886277323
8.178217821782178,0.768370482817182
8.198019801980198,0.8279288193705229
8.217821782178218,0.886764264169322
8.237623762376238,0.9448051756588999
8.257425742574258,1.0019840100600648
8.277227722772277,1.0582364284460593
8.297029702970297,1.1135007140781845
8.316831683168317,1.1677173873763425
8.336633663366337,1.2208289500971317
8.356435643564357,1.2727797159077652
8.376237623762377,1.323515699860284
8.396039603960396,1.3729845486870509
8.415841584158416,1.421135499773918
8.435643564356436,1.467919360494605
8.455445544554456,1.5132885021077835
8.475247524752476,1.5571968641075968
8.495049504950495,1.5995999660692528
8.514851485148515,1.640454924830498
8.534653465346535,1.6797204754100945
8.554455445544555,1.7173569944652307
8.574257425742575,1.7533265253783723
8.594059405940595,1.7875928042752263
8.613861386138613,1.8201212864314973
8.633663366336634,1.85087917264302
8.653465346534654,1.879835435221593
8.673267326732672,1.906960843346354
8.693069306930694,1.9322279875522077
8.712871287128714,1.9556113031775746
8.732673267326732,1.9770870926248305
8.752475247524753,1.9966335463130969
8.772277227722773,2.0142307622224522
8.792079207920791,2.0298607639459583
8.811881188118813,2.0435075171791737
8.831683168316832,2.05515694458831
8.85148514851485,2.0647969390081604
8.871287128712872,2.0724173749288837
8.891089108910892,2.078010118238274
8.91089108910891,2.0815690341926816
8.930693069306932,2.083089993595481
8.950495049504951,2.082570877167675
8.97029702970297,2.080011578100107
8.990099009900991,2.075414002782168
9.00990099009901,2.0687820697062294
9.029702970297029,2.0601217065526067
9.04950495049505,2.049440845464231
9.06930693069307,2.0367494165264506
9.089108910891088,2.022059339472097
9.10891089108911,2.005384513639054
9.12871287128713,1.98674080621411
9.148514851485148,1.9661460388049257
9.16831683168317,1.9436199723911727
9.188118811881187,1.9191842907164018
9.207920792079207,1.8928625821953677
9.227722772277229,1.8646803204266076
9.247524752475247,1.8346648434192274
9.267326732673267,1.8028453316659299
9.287128712871288,1.7692527852239377
9.306930693069306,1.733920000002352
9.326732673267326,1.6968815435017675
9.346534653465348,1.6581737303137036
9.366336633663366,1.6178345977674065
9.386138613861386,1.5759038822174127
9.405940594059407,1.5324229966069918
9.425742574257425,1.4874350101332896
9.445544554455445,1.4409846311006362
9.465346534653467,1.3931181944087256
9.485148514851485,1.3438836556264404
9.504950495049505,1.2933305943166427
9.524752475247526,1.2415102303068974
9.544554455445544,1.188475458104793
9.564356435643564,1.1342809068935416
9.584158415841586,1.078983036931196
9.603960396039604,1.022640288412487
9.623762376237623,0.9653133071260912
9.643564356435645,0.9070652846396352
9.663366336633663,0.8479624730489576
9.683168316831683,0.7880749726070237
9.702970297029704,0.7274779585533637
9.722772277227723,0.6662536391084796
9.742574257425742,0.6044944793906875
9.762376237623764,0.5423087201474447
9.782178217821782,0.47983028857378546
9.801980198019802,0.4172376791017634
9.821782178217823,0.3547926508868743
9.841584158415841,0.29292711473470423
9.861386138613861,0.23246172410486995
9.881188118811881,0.17523584547328488
9.900990099009901,0.12615082989253718
9.92079207920792,0.09861344947395968
9.94059405940594,0.1103290639681078
9.96039603960396,0.15250245544625912
9.98019801980198,0.20722817613643207
10.0,0.26676525561308845
10.01980198019802,0.32835297005194936
10.03960396039604,0.39085087038950467
10.05940594059406,0.4536983819886902
10.07920792079208,0.5165747320302991
10.099009900990099,0.579271246873117
10.118811881188119,0.6416370549908594
10.138613861386139,0.7035535604213597
10.158415841584159,0.7649214375034351
10.178217821782178,0.825653562234436
10.198019801980198,0.8856709637116185
10.217821782178218,0.9449004046886464
10.237623762376238,1.0032728853782167
10.257425742574258,1.0607226929153384
10.277227722772277,1.1171867851572668
10.297029702970297,1.172604385816258
10.316831683168317,1.2269167168274884
10.336633663366337,1.2800668219409221
10.356435643564357,1.3319994521841383
10.376237623762377,1.3826609940109276
10.396039603960396,1.4319994273182273
10.415841584158416,1.4799643045960182
10.435643564356436,1.526506745146651
10.455445544554454,1.571579440093242
10.475247524752476,1.6151366651076202
10.495049504950495,1.657134298623871
10.514851485148514,1.6975298438894904
10.534653465346535,1.7362824536214754
10.554455445544555,1.7733529563347337
10.574257425742573,1.8087038836277145
10.594059405940595,1.8422994978714682
10.613861386138614,1.8741058198678302
10.633663366336632,1.904090656132891
10.653465346534654,1.9322236255308516
