Time (s),Filtered Signal
0.0,-0.001877927022702039
0.03337028824833703,-0.08773709579089824
0.06674057649667406,-0.19088751704391144
0.10011086474501109,-0.3083781969224679
0.13348115299334812,-0.41123219190456356
0.16685144124168516,-0.4579054961041411
0.20022172949002218,-0.41913182077507144
0.2335920177383592,-0.2985523124626851
0.26696230598669624,-0.13585794941295454
0.3003325942350333,0.01013220923888833
0.3337028824833703,0.08894053007834388
0.3670731707317073,0.08100101650971014
0.40044345898004435,0.003424511252996724
0.4338137472283814,-0.10267300364730854
0.4671840354767184,-0.19453085366104228
0.5005543237250555,-0.24667978326582204
0.5339246119733925,-0.256954707610058
0.5672949002217295,-0.23872976390894754
0.6006651884700666,-0.20659256768616488
0.6340354767184035,-0.16548805705009875
0.6674057649667406,-0.10981379024354575
0.7007760532150776,-0.031818343224659165
0.7341463414634146,0.06739453310020488
0.7675166297117517,0.1723151525438735
0.8008869179600887,0.2571817265652062
0.8342572062084257,0.2977853826653931
0.8676274944567628,0.2840489846513213
0.9009977827050998,0.225976696602783
0.9343680709534368,0.14944107319851596
0.9677383592017739,0.08407653529063712
1.001108647450111,0.04986523206582816
1.0344789356984478,0.04946095569650101
1.067849223946785,0.06982674522791774
1.101219512195122,0.09149549606876833
1.134589800443459,0.09974188555987007
1.167960088691796,0.09138298219873742
1.2013303769401331,0.07394628678704736
1.23470066518847,0.05861621801133835
1.268070953436807,0.05186707023457055
1.3014412416851442,0.051016717019445185
1.3348115299334813,0.046110292054247666
1.3681818181818182,0.02650394822459483
1.4015521064301553,-0.01218930911834137
1.4349223946784924,-0.06498470991707384
1.4682926829268292,-0.1197950955873071
1.5016629711751663,-0.16333177228314494
1.5350332594235034,-0.18694066838470094
1.5684035476718403,-0.18910560253067699
1.6017738359201774,-0.17367338694989626
1.6351441241685145,-0.1455441713193382
1.6685144124168514,-0.10700170087751217
1.7018847006651885,-0.057231411597517955
1.7352549889135256,0.004675314499909511
1.7686252771618625,0.075403526098491
1.8019955654101996,0.14509074121485188
1.8353658536585367,0.19931335134899253
1.8687361419068735,0.22507985848993542
1.9021064301552106,0.21780779821845303
1.9354767184035477,0.18512188366711946
1.9688470066518848,0.14458477227022284
2.002217294900222,0.11562689834064414
2.035587583148559,0.10932463861593514
2.0689578713968957,0.12138021051951456
2.102328159645233,0.13256261449579163
2.13569844789357,0.11730932502098661
2.1690687361419068,0.05687061717072949
2.202439024390244,-0.049429077284887234
2.235809312638581,-0.18087768172171476
2.269179600886918,-0.3024545759897541
2.302549889135255,-0.37954556389870003
2.335920177383592,-0.39342975689074433
2.369290465631929,-0.3499130586368385
2.4026607538802662,-0.2766187361521754
2.436031042128603,-0.2099702563210635
2.46940133037694,-0.17802403942180428
2.5027716186252773,-0.18741670983028036
2.536141906873614,-0.2206990355612737
2.569512195121951,-0.24523724932643534
2.6028824833702884,-0.22923886293207787
2.6362527716186253,-0.1571137301935765
2.6696230598669626,-0.03692555419366156
2.7029933481152995,0.10325205297646857
2.7363636363636363,0.22781337605391588
2.7697339246119737,0.3085965481669776
2.8031042128603105,0.33530298351791454
2.8364745011086474,0.31712348503887894
2.8698447893569847,0.2759936536469887
2.9032150776053216,0.23580766064314895
2.9365853658536585,0.2130941263421311
2.969955654101996,0.21285268127197737
3.0033259423503327,0.2299356727179327
3.0366962305986696,0.25364003866641116
3.070066518847007,0.2724207096094258
3.1034368070953438,0.27677214174592096
3.1368070953436806,0.26014995737824487
3.170177383592018,0.21899710718599452
3.203547671840355,0.15293482903588482
3.2369179600886917,0.06536053812478218
3.270288248337029,-0.036105214808470724
3.303658536585366,-0.14006649593115197
3.337028824833703,-0.23300444428858308
3.37039911308204,-0.30182606478631535
3.403769401330377,-0.3366404763690024
3.437139689578714,-0.3331036146783903
3.470509977827051,-0.29383957704507546
3.503880266075388,-0.22852472867542242
3.537250554323725,-0.15222311750630524
3.5706208425720622,-0.08177959978258299
3.603991130820399,-0.030778022329942013
3.637361419068736,-0.004623090303039741
3.6707317073170733,0.0019335858771764097
3.70410199556541,0.0028306559732394257
3.737472283813747,0.014052119564311195
3.7708425720620844,0.04462143498432907
3.8042128603104213,0.08954558032969945
3.8375831485587586,0.12900656224169302
3.8709534368070955,0.13558414191223025
3.9043237250554323,0.08723700180381087
3.9376940133037697,-0.019749961369393207
3.9710643015521065,-0.16452765623631826
4.004434589800444,-0.3062288165166628
4.037804878048781,-0.39834227284483764
4.071175166297118,-0.40701223719536544
4.1045454545454545,-0.3251202860863266
4.137915742793791,-0.17573558702804098
4.171286031042128,-0.0033762094245326593
4.204656319290466,0.14295443006726782
4.238026607538803,0.22752756868705323
4.27139689578714,0.23914622047112438
4.304767184035477,0.19198536401334432
4.3381374722838135,0.11688186642184438
4.371507760532151,0.047802090412841516
4.404878048780488,0.00953730524327007
4.438248337028825,0.011203598300569318
4.471618625277162,0.04690841322458256
4.504988913525499,0.10170091611736187
4.538359201773836,0.1591244611994937
4.571729490022173,0.20689884151813873
4.60509977827051,0.23898446258406372
4.638470066518847,0.25439128509806197
4.671840354767184,0.2545085871962608
4.705210643015521,0.24093123803021305
4.738580931263858,0.2149151894147318
4.771951219512196,0.1783305262643111
4.8053215077605325,0.13499441990395378
4.838691796008869,0.09102708911343196
4.872062084257206,0.05345514936290253
4.905432372505543,0.027364551563362347
4.93880266075388,0.012910337178393528
4.972172949002218,0.003874340486460712
5.005543237250555,-0.011032488306213561
5.0389135254988915,-0.04412672791353498
5.072283813747228,-0.10333891259883883
5.105654101995565,-0.18766769744883338
5.139024390243902,-0.285626871710934
5.17239467849224,-0.3776827736266096
5.205764966740577,-0.4420115647676723
5.239135254988914,-0.46147905514573273
5.2725055432372505,-0.4292515132722664
5.305875831485587,-0.35109628605986337
5.339246119733925,-0.24382759443845786
5.372616407982262,-0.130732964111884
5.405986696230599,-0.035545446278900404
5.439356984478936,0.023503255850238287
5.472727272727273,0.0383983662857245
5.5060975609756095,0.013917666550654033
5.539467849223947,-0.03284153226448457
5.572838137472284,-0.07670769173998018
5.606208425720621,-0.0922541371884651
5.639578713968958,-0.0632965776504699
5.672949002217295,0.009499978631275214
5.706319290465632,0.10685702560821646
5.7396895787139695,0.19715850567019488
5.773059866962306,0.24943080438041246
5.806430155210643,0.24799975338639127
5.83980044345898,0.20202215837881526
5.873170731707317,0.14454361003992114
5.906541019955654,0.12011024372383704
5.939911308203992,0.16534444215071095
5.9732815964523285,0.2906693369042707
6.006651884700665,0.47154772348491986
6.040022172949002,0.6538767753696801
6.073392461197339,0.772136681661928
6.106762749445676,0.7732795574409219
6.140133037694014,0.6367518226008932
6.173503325942351,0.38263291580883657
6.2068736141906875,0.06484386283510046
6.240243902439024,-0.24757509553963578
6.273614190687361,-0.4936149401625461
6.306984478935698,-0.6391175157020481
6.340354767184036,-0.6846900285214337
6.373725055432373,-0.6606222410577253
6.40709534368071,-0.6116565306525429
6.4404656319290465,-0.578039092725472
6.473835920177383,-0.5802570741191775
6.507206208425721,-0.6129696496594949
6.540576496674058,-0.6496771889195979
6.573946784922395,-0.6552800977431259
6.607317073170732,-0.6007181193963824
6.640687361419069,-0.47362628434514326
6.674057649667406,-0.28142001966179453
6.707427937915743,-0.047082822271670245
6.74079822616408,0.19890729486250341
6.774168514412417,0.42625722798418286
6.807538802660754,0.6095832627078458
6.840909090909091,0.7303804418828181
6.874279379157428,0.7781931858786526
6.9076496674057655,0.7525094486448695
6.941019955654102,0.6648554963211943
6.974390243902439,0.5387787537548308
7.007760532150776,0.40553814611595235
7.041130820399113,0.29554035841868354
7.07450110864745,0.22842957258808055
7.107871396895788,0.2062996324781431
7.1412416851441245,0.21362030726628703
7.174611973392461,0.22450586949719883
7.207982261640798,0.21441946108532098
7.241352549889135,0.17108387586656362
7.274722838137472,0.09944442523374218
7.30809312638581,0.018106051073607903
7.341463414634147,-0.05128761127124587
7.3748337028824835,-0.09657595099388239
7.40820399113082,-0.1229134330064408
7.441574279379157,-0.15119002499557935
7.474944567627494,-0.206952591780921
7.508314855875832,-0.30500422139530403
7.541685144124169,-0.43791722678743383
7.575055432372506,-0.5755158911307703
7.6084257206208425,-0.6770560679559107
7.641796008869179,-0.71085205440739
7.675166297117517,-0.6712780928212322
7.708536585365854,-0.5834345349087731
7.741906873614191,-0.49168128929463684
7.775277161862528,-0.43686297379558187
7.808647450110865,-0.4336756065755806
7.842017738359202,-0.4603163410883891
7.875388026607539,-0.46657929312193885
7.908758314855876,-0.3970281044458886
7.942128603104213,-0.21804100964543704
7.97549889135255,0.06433635266079206
8.008869179600888,0.40389365058303545
8.042239467849225,0.730623039334787
8.075609756097561,0.975853255651858
8.108980044345898,1.095173100366833
8.142350332594235,1.0806445440026333
8.175720620842572,0.959392137574698
8.209090909090909,0.781094905561201
8.242461197339246,0.600008638068422
8.275831485587583,0.45762587005410627
8.30920177383592,0.3708995081279801
8.342572062084257,0.3290847425695022
8.375942350332595,0.300014483714819
8.409312638580932,0.24399402293743397
8.442682926829269,0.13082841864382758
8.476053215077606,-0.04621082898909981
8.509423503325943,-0.26523375021131024
8.54279379157428,-0.48212052178257864
8.576164079822616,-0.6464724560361705
8.609534368070953,-0.7208183425358923
8.64290465631929,-0.6950005175214955
8.676274944567627,-0.5895508413280925
8.709645232815964,-0.4467072358588899
8.743015521064303,-0.3132720600722319
8.77638580931264,-0.22307885855015833
8.809756097560976,-0.18665060994228497
8.843126385809313,-0.19182847950743032
8.87649667405765,-0.213728592475181
8.909866962305987,-0.22816137728363556
8.943237250554324,-0.22170294192497358
8.97660753880266,-0.1941672319230069
9.009977827050998,-0.15364479648422424
9.043348115299334,-0.1080689486214966
9.076718403547671,-0.05855464477283678
9.110088691796008,0.0018187298739878175
9.143458980044347,0.08338263666276816
9.176829268292684,0.19216369404664177
9.21019955654102,0.323367382109943
9.243569844789358,0.4597133292056579
9.276940133037694,0.5758604964188563
9.310310421286031,0.6470927045386745
9.343680709534368,0.6581650491459125
9.377050997782705,0.6079696019152487
9.410421286031042,0.5078043949688578
9.443791574279379,0.3745464422599419
9.477161862527716,0.2229415305664664
9.510532150776053,0.06163501624135864
9.543902439024391,-0.10498082786009748
9.577272727272728,-0.271014766335789
9.610643015521065,-0.4241078061352563
9.644013303769402,-0.5455348755012642
9.677383592017739,-0.6162665804812789
9.710753880266076,-0.625750461563621
9.744124168514412,-0.578073800269462
9.77749445676275,-0.49146899765416613
9.810864745011086,-0.39094050655143986
9.844235033259423,-0.29771810302510293
9.87760532150776,-0.22094746133661786
9.910975609756099,-0.155668464466501
9.944345898004435,-0.08769152773760218
9.977716186252772,-0.002516801830062008
10.01108647450111,0.10622314738993979
10.044456762749446,0.23257376897131374
10.077827050997783,0.35970288061985184
10.11119733924612,0.4657589775566307
10.144567627494457,0.5313386411126954
10.177937915742794,0.5456216546685115
10.21130820399113,0.5092237677285991
10.244678492239467,0.4332723240304002
10.278048780487804,0.3355170063712931
10.311419068736143,0.23506553622914997
10.34478935698448,0.1474546133852607
10.378159645232817,0.08133864073229834
10.411529933481154,0.037391182295261054
10.44490022172949,0.00938366539993933
10.478270509977827,-0.01300697063824808
10.511640798226164,-0.040362574290337044
10.545011086474501,-0.07959468889621403
10.578381374722838,-0.1310845869105645
10.611751662971175,-0.18806784098076135
10.645121951219512,-0.23893810008525532
10.67849223946785,-0.272036205240226
10.711862527716187,-0.281129973456682
10.745232815964524,-0.2689398922396873
10.778603104212861,-0.2464850840826517
10.811973392461198,-0.22788339069331948
10.845343680709535,-0.22277765572202596
10.878713968957872,-0.23032928398371869
10.912084257206208,-0.23842596873865174
10.945454545454545,-0.2292103765056979
10.978824833702882,-0.18852817425994528
11.012195121951219,-0.11448212635957086
11.045565410199556,-0.02048073614765921
11.078935698447895,0.06908079358385445
11.112305986696231,0.12866243652404177
11.145676274944568,0.14246565280538925
11.179046563192905,0.11154457449232306
11.212416851441242,0.054138945349859566
11.245787139689579,-0.0009038569245323681
11.279157427937916,-0.02508730242827563
11.312527716186253,-0.0014640796300726274
11.34589800443459,0.068267680085953
11.379268292682926,0.16385152726195823
11.412638580931263,0.2542931613447465
11.4460088691796,0.31078448367292066
11.479379157427939,0.3194542156552794
11.512749445676276,0.2879699065316133
11.546119733924613,0.24212248379693752
11.57949002217295,0.21296038095327188
11.612860310421286,0.21990066069571795
11.646230598669623,0.25800690227426015
11.67960088691796,0.29650381678919785
11.712971175166297,0.2906833313856337
11.746341463414634,0.20279830270324273
11.77971175166297,0.022590757842950927
11.813082039911308,-0.22255454019268273
11.846452328159646,-0.4735652561750278
11.879822616407983,-0.6601409376968993
11.91319290465632,-0.7272368117730073
11.946563192904657,-0.6561040343069775
11.979933481152994,-0.470859711281557
12.01330376940133,-0.22823609082062474
12.046674057649668,0.004280636859903315
12.080044345898004,0.17201219944580834
12.113414634146341,0.24874290255898193
12.146784922394678,0.23958009156238214
12.180155210643015,0.17242070334592013
12.213525498891352,0.08391340297756723
12.24689578713969,0.006578707118346537
12.280266075388028,-0.03875526413698508
12.313636363636364,-0.04467638993899387
12.347006651884701,-0.015060082743983957
12.380376940133038,0.038489892215999626
12.413747228381375,0.10026319426058455
12.447117516629712,0.15394794114291913
12.480487804878049,0.18616678652141777
12.513858093126386,0.18962955451791064
12.547228381374723,0.16480434146217277
12.58059866962306,0.1190634863797957
12.613968957871396,0.06330112834587652
12.647339246119735,0.007453868355317176
12.680709534368072,-0.042837543806569
12.714079822616409,-0.08669898150329515
12.747450110864746,-0.1255308828019083
12.780820399113082,-0.15922014967343123
12.81419068736142,-0.1835159980272014
12.847560975609756,-0.19038203883641716
12.880931263858093,-0.17146344251676077
12.91430155210643,-0.12306915742851522
12.947671840354767,-0.050154451134355967
12.981042128603104,0.032920720307054084
13.014412416851442,0.10577001107815197
13.04778270509978,0.14862214124245876
13.081152993348116,0.14978422415024642
13.114523281596453,0.11080159193447224
13.14789356984479,0.04681420769582515
13.181263858093127,-0.01853276482123898
13.214634146341464,-0.06188034047511877
13.2480044345898,-0.06909070267006746
13.281374722838137,-0.040480658836715436
13.314745011086474,0.009988869584215248
13.348115299334811,0.0612489093659252
13.381485587583148,0.09448045376302433
13.414855875831487,0.10110420626869224
13.448226164079824,0.0858402589116697
13.48159645232816,0.06353859060199725
13.514966740576497,0.051327606697649436
13.548337028824834,0.05973085646131239
13.581707317073171,0.08680671479304623
13.615077605321508,0.11795795594892021
13.648447893569845,0.13156993948220302
13.681818181818182,0.1082019418083861
13.715188470066519,0.039638162886832994
13.748558758314855,-0.06586329045743743
13.781929046563192,-0.18442616658688288
13.815299334811531,-0.2836362008033221
13.848669623059868,-0.33364353708746236
13.882039911308205,-0.3183589527274842
13.915410199556542,-0.24235169893871275
13.948780487804878,-0.13025971696333663
13.982150776053215,-0.01824767981917241
14.015521064301552,0.05958989679734715
14.048891352549889,0.0844379117518138
14.082261640798226,0.05980794870584488
14.115631929046563,0.009052270129271196
14.1490022172949,-0.035745143487589615
14.182372505543238,-0.04843325138277096
14.215742793791575,-0.020100295558816633
14.249113082039912,0.03828795864774044
14.282483370288249,0.10284964931357968
14.315853658536586,0.1493923721624048
14.349223946784923,0.1649538126880408
14.38259423503326,0.15245279168069745
14.415964523281596,0.1266215344004313
14.449334811529933,0.10422307089764206
14.48270509977827,0.09450345751848528
14.516075388026607,0.09526723295998195
14.549445676274944,0.09631503751748079
14.582815964523283,0.08746758352797816
14.61618625277162,0.06574407287259702
14.649556541019956,0.0370512987090288
14.682926829268293,0.011431995439251287
14.71629711751663,-0.004834250762292623
14.749667405764967,-0.014881869164745164
14.783037694013304,-0.030633519948367882
14.81640798226164,-0.06582404551954463
14.849778270509978,-0.12663822229433624
14.883148558758315,-0.20554167312912897
14.916518847006651,-0.282146963858343
14.949889135254988,-0.3310149783183075
14.983259423503327,-0.3325331573121848
15.016629711751664,-0.28152406622249
15.05,-0.189614734651325
15.083370288248338,-0.08060471520867063
15.116740576496674,0.018723063365359286
15.150110864745011,0.08821373611318485
15.183481152993348,0.1205657896212985
15.216851441241685,0.122193772901288
15.250221729490022,0.1090554607669319
15.283592017738359,0.09957245511058832
15.316962305986696,0.10752747224430821
15.350332594235034,0.13747512924496727
15.383702882483371,0.18406189626940908
15.417073170731708,0.23518062135166154
15.450443458980045,0.2775354962384674
15.483813747228382,0.302306220946513
15.517184035476719,0.3084244614262397
15.550554323725056,0.3017085621664231
15.583924611973393,0.2897850336676639
15.61729490022173,0.27495784394695544
15.650665188470066,0.24894990148682
15.684035476718403,0.1934436126807648
15.71740576496674,0.08792773897085308
15.750776053215079,-0.0776871797584469
15.784146341463416,-0.2917315384543484
15.817516629711752,-0.5174289363517431
15.85088691796009,-0.7011710421389387
15.884257206208426,-0.7904867187052382
15.917627494456763,-0.7545505636892047
15.9509977827051,-0.5980189860606806
15.984368070953437,-0.36139868010413606
16.017738359201775,-0.1070775087100424
16.05110864745011,0.10324300474785199
16.08447893569845,0.22998006535379695
16.117849223946784,0.26690270097247465
16.151219512195123,0.23807888769134017
16.184589800443458,0.18312901736550258
16.217960088691797,0.13836070576847698
16.251330376940132,0.12235021577289353
16.28470066518847,0.13148650793741792
16.31807095343681,0.1458755134476194
16.351441241685144,0.14149909662218396
16.384811529933483,0.10256862021048223
16.418181818181818,0.02898684248075241
16.451552106430157,-0.06330163180770144
16.48492239467849,-0.14817732980919587
16.51829268292683,-0.198501260430852
16.551662971175165,-0.19513222691943888
16.585033259423504,-0.13306843477671504
16.61840354767184,-0.023185327338369106
16.651773835920178,0.1107008505421257
16.685144124168513,0.23854690573427637
16.71851441241685,0.332641193721693
16.75188470066519,0.3753979139613606
16.785254988913525,0.3638551405505462
16.818625277161864,0.30938557050577914
16.8519955654102,0.2328414867346239
16.885365853658538,0.15700466653997533
16.918736141906873,0.09906326826244273
16.95210643015521,0.06560555987383695
16.985476718403547,0.05156168662389022
17.018847006651885,0.043163589542764634
17.05221729490022,0.023775522011783172
17.08558758314856,-0.019386017675898887
17.118957871396898,-0.08993298293506148
17.152328159645233,-0.18031270501961705
17.18569844789357,-0.2739648755395064
17.219068736141907,-0.3508627769390035
