Time (s),Filtered Signal
0.0,-0.040071780445362595
0.03337004405286344,-0.03560432349503135
0.06674008810572687,-0.004148374223739681
0.10011013215859031,0.07002163411003551
0.13348017621145375,0.1853031593152747
0.16685022026431717,0.32271546111890254
0.20022026431718062,0.45223347817679954
0.23359030837004408,0.5428932590421661
0.2669603524229075,0.5727791609072975
0.3003303964757709,0.535317253581939
0.33370044052863435,0.4399676711517275
0.3670704845814978,0.30766969229719027
0.40044052863436125,0.16328544858328017
0.43381057268722467,0.028060939954319717
0.46718061674008815,-0.08540297303470919
0.5005506607929515,-0.174529914924671
0.533920704845815,-0.24474854994064257
0.5672907488986785,-0.3051915214025486
0.6006607929515418,-0.36354138095822675
0.6340308370044053,-0.4215110735403307
0.6674008810572687,-0.47242402784834253
0.7007709251101322,-0.5020631274296653
0.7341409691629956,-0.49307661684736054
0.767511013215859,-0.43179432426422115
0.8008810572687225,-0.3149122494704779
0.834251101321586,-0.15302549487233189
0.8676211453744493,0.03100757960319385
0.9009911894273128,0.20864912762914412
0.9343612334801763,0.35458374972952383
0.9677312775330397,0.4540564855953115
1.001101321585903,0.5054570027283236
1.0344713656387665,0.5173177462195977
1.06784140969163,0.5016802455980426
1.1012114537444935,0.4674929255889768
1.134581497797357,0.41741092885861525
1.1679515418502202,0.34926212529181255
1.2013215859030837,0.26074275002324265
1.2346916299559472,0.1541759437106334
1.2680616740088106,0.038380821522200875
1.3014317180616741,-0.07337495193561991
1.3348017621145374,-0.1680156795125949
1.3681718061674009,-0.2372601704514552
1.4015418502202643,-0.27995512156934843
1.4349118942731278,-0.3014917725146014
1.4682819383259913,-0.3111988461476271
1.5016519823788548,-0.31913954939064
1.535022026431718,-0.33325202650230384
1.5683920704845815,-0.3570484966134161
1.601762114537445,-0.3879201899165342
1.6351321585903085,-0.41655546143695144
1.668502202643172,-0.4284035549017723
1.7018722466960352,-0.4077561891198171
1.7352422907488987,-0.3437446082744755
1.7686123348017622,-0.23604442901536926
1.8019823788546256,-0.09740980737766006
1.8353524229074891,0.048952242453702784
1.8687224669603526,0.1768725703928458
1.9020925110132159,0.2667004918470023
1.9354625550660793,0.3125032697960851
1.9688325991189428,0.32347793804443514
2.002202643171806,0.31877463522998417
2.0355726872246698,0.31818071399055337
2.068942731277533,0.33313001674446396
2.1023127753303967,0.3621968884567765
2.13568281938326,0.39285348376576446
2.1690528634361232,0.4081737046283325
2.202422907488987,0.39498004838670625
2.23579295154185,0.34962565431979015
2.269162995594714,0.2790932175467673
2.302533039647577,0.19744155614881911
2.3359030837004404,0.11966276638666826
2.369273127753304,0.05588566516395144
2.4026431718061674,0.008357776185940108
2.436013215859031,-0.02785575999293923
2.4693832599118943,-0.06125044548399886
2.5027533039647576,-0.09932346414364698
2.5361233480176213,-0.14523610398635142
2.5694933920704845,-0.19702795046506477
2.6028634361233483,-0.2493572624068348
2.6362334801762115,-0.29653612135897567
2.6696035242290748,-0.3351261878126444
2.7029735682819385,-0.3647464716598364
2.7363436123348017,-0.38678029717802365
2.7697136563876654,-0.40182638210877747
2.8030837004405287,-0.40745031398142906
2.8364537444933924,-0.39770781947858186
2.8698237885462556,-0.36505683654498555
2.903193832599119,-0.3040431378061316
2.9365638766519826,-0.21511606293632815
2.969933920704846,-0.10662169817944181
3.0033039647577096,0.0063563300122368785
3.036674008810573,0.10629410342984226
3.070044052863436,0.1791634237302198
3.1034140969162998,0.21958961695256776
3.136784140969163,0.23295141968658953
3.1701541850220267,0.23333086802089684
3.20352422907489,0.23794286691803995
3.2368942731277532,0.26016279426865113
3.270264317180617,0.3038861011125073
3.30363436123348,0.36145620401690504
3.337004405286344,0.41600391875388587
3.370374449339207,0.44731404368250155
3.4037444933920704,0.43896650067821613
3.437114537444934,0.3840545340265041
3.4704845814977974,0.2874380785971502
3.503854625550661,0.16392649876605275
3.5372246696035243,0.03333848200699721
3.5705947136563876,-0.08559075096837425
3.6039647577092513,-0.18030722609034047
3.6373348017621145,-0.24696544321909086
3.6707048458149782,-0.28979512847143923
3.7040748898678415,-0.31776236266444036
3.737444933920705,-0.33982235405279637
3.7708149779735685,-0.36051927836955433
3.8041850220264317,-0.3776232777914278
3.8375550660792954,-0.38283798695831794
3.8709251101321587,-0.36546616557889117
3.9042951541850224,-0.31764411706624324
3.9376651982378856,-0.2389076535163693
3.971035242290749,-0.13794214693683773
4.004405286343612,-0.030510639237989846
4.037775330396476,0.06571412501165887
4.0711453744493395,0.13722250053490243
4.104515418502203,0.17902887033588039
4.137885462555066,0.1955393281809971
4.171255506607929,0.19777873065370663
4.2046255506607935,0.19840937604428907
4.237995594713657,0.2067534244792991
4.27136563876652,0.22574884064715892
4.304735682819383,0.25170169087577415
4.3381057268722465,0.27643767834821836
4.371475770925111,0.2905814602902126
4.404845814977974,0.2865191778459827
4.438215859030837,0.26009037326832585
4.4715859030837,0.2108801026796093
4.504955947136564,0.1416806863441001
4.538325991189428,0.05789121387177023
4.571696035242291,-0.032760924313724495
4.605066079295154,-0.12046255216586271
4.638436123348018,-0.19423282130076788
4.671806167400881,-0.24400023234607437
4.705176211453745,-0.2634985925068068
4.738546255506608,-0.25277911155672084
4.7719162995594715,-0.21891021509867017
4.805286343612335,-0.17412967917726033
4.838656387665198,-0.1319695065789115
4.872026431718062,-0.10293363030461905
4.905396475770925,-0.09153509685736184
4.938766519823789,-0.09579210265348448
4.972136563876652,-0.10909560693499602
5.005506607929515,-0.12336274215355811
5.038876651982379,-0.13203931254440326
5.072246696035243,-0.13184994154533597
5.105616740088106,-0.12291618147430693
5.138986784140969,-0.1075775687304304
5.172356828193832,-0.08867741737524937
5.2057268722466965,-0.06811723950071519
5.23909691629956,-0.046201191943741324
5.272466960352423,-0.021850375985184176
5.305837004405286,0.00662018244545294
5.3392070484581495,0.04062244060548812
5.372577092511014,0.08064653873318643
5.405947136563877,0.12589279082150298
5.43931718061674,0.1740343184793921
5.4726872246696034,0.2210185291002442
5.506057268722468,0.2611019454285954
5.539427312775331,0.2875726997325339
5.572797356828194,0.2945289850046735
5.606167400881057,0.27951041040811464
5.639537444933921,0.24593890222352482
5.672907488986785,0.20375952408217748
5.706277533039648,0.16696637629901337
5.739647577092511,0.1480526985809534
5.7730176211453745,0.15133462376610615
5.806387665198238,0.16847307565489936
5.839757709251102,0.17928011005548378
5.873127753303965,0.15874588435495693
5.9064977973568284,0.08802774811426058
5.939867841409692,-0.03540321944854544
5.973237885462555,-0.19357727288450616
6.006607929515419,-0.35251873974013703
6.039977973568282,-0.4740486915475278
6.073348017621146,-0.5298642477004166
6.106718061674009,-0.5116238643520744
6.140088105726872,-0.4326901817648694
6.173458149779736,-0.3212430112274991
6.2068281938325995,-0.20848228665470486
6.240198237885463,-0.11751522229567588
6.273568281938326,-0.05747700935023816
6.306938325991189,-0.02432931202146854
6.3403083700440535,-0.006484054360690859
6.373678414096917,0.008372545409115268
6.40704845814978,0.0285030600660182
6.440418502202643,0.05675200104216212
6.4737885462555065,0.09189236037575414
6.507158590308371,0.13089328950159693
6.540528634361234,0.17052467387123518
6.573898678414097,0.20774408619425935
6.60726872246696,0.23932612875688777
6.640638766519824,0.26158036492013903
6.674008810572688,0.27069128624018596
6.707378854625551,0.26359325278163226
6.740748898678414,0.23886868402855874
6.774118942731278,0.19719257887372452
6.807488986784141,0.1412269255325027
6.840859030837005,0.07523686562104887
6.874229074889868,0.004744358888450973
6.9075991189427315,-0.06376842894484623
6.940969162995595,-0.12344973761138814
6.974339207048458,-0.1683227632957693
7.007709251101322,-0.19506558338604713
7.041079295154185,-0.20451522255008026
7.074449339207049,-0.20175727962647724
7.107819383259912,-0.19414736265819346
7.141189427312775,-0.18780321847645517
7.174559471365639,-0.18430064488116643
7.207929515418503,-0.17961634230394938
7.241299559471366,-0.16636076955628315
7.274669603524229,-0.1384657905591808
7.308039647577092,-0.09584672081376942
7.3414096916299565,-0.04624145827533496
7.37477973568282,-0.0027697635927640355
7.408149779735683,0.021949057788550157
7.441519823788546,0.022344499830837194
7.47488986784141,0.003855754417359373
7.508259911894274,-0.017740357294368247
7.541629955947137,-0.021512685966861192
7.575,0.011013950446394565
7.608370044052863,0.08877080799074494
7.641740088105728,0.20709478619498004
7.675110132158591,0.34792152342562493
7.708480176211454,0.4839240689754335
7.741850220264317,0.5851729379996147
7.775220264317181,0.6264201822942979
7.808590308370045,0.5932443296334226
7.841960352422908,0.4857645717244987
7.875330396475771,0.31914972339663705
7.9087004405286345,0.12062277359666262
7.942070484581498,-0.07673891795802677
7.975440528634362,-0.24221472590942394
8.008810572687224,-0.3554636421133055
8.042180616740088,-0.4116341999849538
8.075550660792953,-0.4214107068405279
8.108920704845815,-0.40560895761019794
8.142290748898679,-0.38622439903007155
8.175660792951541,-0.3775366404031506
8.209030837004406,-0.3810447037228288
8.24240088105727,-0.3864209860712891
8.275770925110132,-0.3779775713141355
8.309140969162996,-0.3435732504787318
8.342511013215859,-0.2816918112432891
8.375881057268723,-0.20322562617499187
8.409251101321587,-0.12699449004241892
8.44262114537445,-0.07106649332146252
8.475991189427313,-0.04404946840218517
8.509361233480176,-0.04061330278686998
8.54273127753304,-0.043494562386808884
8.576101321585904,-0.03111416312503434
8.609471365638766,0.012729418964286981
8.64284140969163,0.09154054782277371
8.676211453744493,0.19441029574455101
8.709581497797357,0.3004693913602018
8.742951541850221,0.38729347907104583
8.776321585903084,0.43942789502171214
8.809691629955948,0.4534000986290708
8.84306167400881,0.43737702790747857
8.876431718061674,0.40607501731920265
8.909801762114538,0.37350656762727324
8.9431718061674,0.346843006051249
8.976541850220265,0.32392040481376844
9.009911894273127,0.29518143108441697
9.043281938325991,0.24893770865560308
9.076651982378856,0.17753744143716962
9.110022026431718,0.08178893710544345
9.143392070484582,-0.028170684022187618
9.176762114537445,-0.13585640678851574
9.210132158590309,-0.2239921774503928
9.243502202643173,-0.28036869712041473
9.276872246696035,-0.30167938678239764
9.3102422907489,-0.2939166141333085
9.343612334801762,-0.269368053877518
9.376982378854626,-0.24162866274428396
9.41035242290749,-0.22075387268486782
9.443722466960352,-0.21046265968397737
9.477092511013216,-0.20831461107846652
9.510462555066079,-0.20849572340577532
9.543832599118943,-0.2057837781095375
9.577202643171807,-0.19881703222968108
9.61057268722467,-0.19110515208497011
9.643942731277534,-0.18917850880400755
9.677312775330396,-0.1985265828253821
9.71068281938326,-0.21905867008563362
9.744052863436124,-0.24228185878930497
9.777422907488987,-0.2519635673709531
9.81079295154185,-0.22876651906293208
9.844162995594713,-0.15761003919844457
9.877533039647577,-0.0350129516506698
9.910903083700441,0.12683466609417243
9.944273127753304,0.3015856576045183
9.977643171806168,0.4559535984381893
10.01101321585903,0.5601907396748925
10.044383259911895,0.5977012397892781
10.077753303964759,0.5698055055982523
10.111123348017621,0.49370362476509266
10.144493392070485,0.3946858442703703
10.177863436123348,0.2961391563197916
10.211233480176212,0.21168157796730802
10.244603524229076,0.14250848493604293
10.277973568281938,0.08048263088410981
10.311343612334802,0.014939484151856652
10.344713656387665,-0.06023314904290143
10.378083700440529,-0.14246233220102805
10.411453744493393,-0.22095380338773346
10.444823788546255,-0.2812694887781882
10.47819383259912,-0.31175693207507554
10.511563876651982,-0.3088486100530581
10.544933920704846,-0.2788548727977315
10.57830396475771,-0.2355309226770872
10.611674008810573,-0.1946559221547162
10.645044052863437,-0.16818920625154438
10.678414096916299,-0.1606047848064979
10.711784140969163,-0.16874619115735856
10.745154185022027,-0.1846873419784941
10.77852422907489,-0.19966109075790356
10.811894273127754,-0.20689168516485162
10.845264317180618,-0.20218594741895843
10.87863436123348,-0.18270529960298398
10.912004405286345,-0.14546473658289777
10.945374449339207,-0.08712316777340146
10.978744493392071,-0.005605513487445775
11.012114537444935,0.09726586753940634
11.045484581497798,0.2137918725495852
11.078854625550662,0.33055831143631326
11.112224669603524,0.431175678872627
11.145594713656388,0.5007098030511631
11.178964757709252,0.5300188960771112
11.212334801762115,0.5181759921171226
11.245704845814979,0.4719740700683368
11.279074889867841,0.40278197181919034
11.312444933920705,0.3221501959822549
11.34581497797357,0.23805238126508904
11.379185022026432,0.1532988265896847
11.412555066079296,0.06665279405205177
11.445925110132158,-0.02404444351626467
11.479295154185023,-0.1183711755426779
11.512665198237887,-0.21131223984621447
11.546035242290749,-0.293953998753897
11.579405286343613,-0.35676507016565734
11.612775330396476,-0.3939078104787989
11.64614537444934,-0.4062859439046947
11.679515418502204,-0.4015019449537102
11.712885462555066,-0.3904342979986701
11.74625550660793,-0.3819634413112647
11.779625550660793,-0.378475886982557
11.812995594713657,-0.37452148831430093
11.846365638766521,-0.35947618224351174
11.879735682819383,-0.3230341307028482
11.913105726872248,-0.26085230021061384
11.94647577092511,-0.17747548208090577
11.979845814977974,-0.08492241912359348
12.013215859030838,0.0025536514527992344
12.0465859030837,0.07503159606285668
12.079955947136565,0.13149781125380416
12.113325991189427,0.1799576977647516
12.146696035242291,0.23279089191431176
12.180066079295155,0.2995021156012997
12.213436123348018,0.38044045018040457
12.246806167400882,0.4646703936200402
12.280176211453744,0.5331660481005946
12.313546255506608,0.5659352002642359
12.346916299559473,0.5498915848317506
12.380286343612335,0.4841153516813379
12.413656387665199,0.3805027424308596
12.447026431718061,0.2598744484230639
12.480396475770926,0.14534003149719266
12.51376651982379,0.05541833358386182
12.547136563876652,-0.000947055043995996
12.580506607929516,-0.026287588107095486
12.613876651982379,-0.0332019792946446
12.647246696035243,-0.04012450815064213
12.680616740088107,-0.06528656423894698
12.71398678414097,-0.12041677644390761
12.747356828193833,-0.20614252368145852
12.780726872246696,-0.31094322813815123
12.81409691629956,-0.4145013480829497
12.847466960352424,-0.4945562519777656
12.880837004405286,-0.5346645544299932
12.91420704845815,-0.5295908274985942
12.947577092511013,-0.48594153062363293
12.980947136563877,-0.4178130961502842
13.014317180616741,-0.339612258798485
13.047687224669604,-0.2595940031598577
13.081057268722468,-0.17730099028541582
13.11442731277533,-0.08612081867724339
13.147797356828194,0.020423580460784522
13.181167400881058,0.1419627126501486
13.21453744493392,0.2677396218339878
13.247907488986785,0.3783137692234433
13.281277533039647,0.45202737231014534
13.314647577092511,0.47342248109397694
13.348017621145376,0.4398216037370846
13.381387665198238,0.3630866598297161
13.414757709251102,0.2657016655055444
13.448127753303964,0.17275492507590795
13.481497797356829,0.10306724907152227
13.514867841409693,0.06300795313285983
13.548237885462555,0.04545187026642999
13.58160792951542,0.034324078785930454
13.614977973568282,0.012957252262772757
13.648348017621146,-0.027189748923980375
13.68171806167401,-0.08135264353012905
13.715088105726872,-0.1325536888608369
13.748458149779736,-0.15910145773087764
13.781828193832599,-0.14555350729507896
13.815198237885463,-0.09208473789342504
13.848568281938327,-0.017347142208576034
13.88193832599119,0.04739072681739238
13.915308370044054,0.07084911761112901
13.948678414096916,0.03551435776780151
13.98204845814978,-0.05397798961086695
14.015418502202644,-0.1720387343512925
14.048788546255507,-0.28240278072982267
14.08215859030837,-0.35247767860978846
14.115528634361233,-0.3648892935571747
14.148898678414097,-0.32114793517100837
14.182268722466961,-0.2367194356613708
14.215638766519824,-0.13120305825472472
14.249008810572688,-0.019392061255110775
14.28237885462555,0.09222138142526505
14.315748898678414,0.20252033247690737
14.349118942731279,0.309259841490116
14.382488986784141,0.40376583237655006
14.415859030837005,0.47069929725886545
14.449229074889868,0.4936097454000573
14.482599118942732,0.46344090031868435
14.515969162995596,0.385133988933699
14.549339207048458,0.2781083031693362
14.582709251101322,0.16941054481205453
14.616079295154185,0.08222284690306203
14.649449339207049,0.025220610652538035
14.682819383259913,-0.011562918952862003
14.716189427312775,-0.05150628090914681
14.74955947136564,-0.11855613047830615
14.782929515418502,-0.22272740944284763
14.816299559471366,-0.3514242214302958
14.84966960352423,-0.47177550948911384
14.883039647577093,-0.5439138956791552
14.916409691629957,-0.5394189974325639
14.94977973568282,-0.4560161242594075
14.983149779735683,-0.3209090699644177
15.016519823788547,-0.18040087709227964
15.04988986784141,-0.08015656558550632
15.083259911894274,-0.04521273079550758
15.116629955947138,-0.0692084260746344
15.15,-0.11804892446339572
15.183370044052865,-0.14636313194256323
15.216740088105727,-0.119001021243885
15.250110132158591,-0.02742447395759051
15.283480176211455,0.10663997338416406
15.316850220264318,0.24172090181628073
15.350220264317182,0.33592421940632866
15.383590308370044,0.36565948484008315
15.416960352422908,0.3350516906157639
15.450330396475772,0.27218459017882934
15.483700440528635,0.2147538442575266
15.517070484581499,0.19248308275810402
15.550440528634361,0.2146264959515986
15.583810572687225,0.2679091922716516
15.61718061674009,0.32502975167182796
15.650550660792952,0.3589053340745963
15.683920704845816,0.35539267262633456
15.717290748898678,0.31828022719332766
15.750660792951543,0.2643691184956534
15.784030837004407,0.21155456429207298
15.817400881057269,0.16651901212871997
15.850770925110133,0.11902108704146716
15.884140969162996,0.04643818043502365
15.91751101321586,-0.07325097104755976
15.950881057268724,-0.24663390509262403
15.984251101321586,-0.4561847768111336
16.01762114537445,-0.6628284934563311
16.050991189427315,-0.8190578816193897
16.084361233480177,-0.8864366463213071
16.11773127753304,-0.8492181869463515
16.151101321585905,-0.7181650391114683
16.184471365638768,-0.5239165936768484
16.21784140969163,-0.3042996685627859
16.251211453744492,-0.09210572264086603
16.284581497797358,0.09166598149547121
16.31795154185022,0.23788208540100367
16.351321585903083,0.3450613755631159
16.38469162995595,0.4147711572710344
16.41806167400881,0.44947654667432063
16.451431718061674,0.45315697382709047
16.48480176211454,0.4327952883371729
16.518171806167402,0.39833549846059163
16.551541850220264,0.36007276572905766
16.584911894273127,0.3246238679266937
16.618281938325993,0.29205372826171755
16.651651982378855,0.2563586559649432
16.685022026431717,0.20951390977149287
16.718392070484583,0.14697858268291222
16.751762114537446,0.07145544449327003
16.785132158590308,-0.007415637605419356
16.818502202643174,-0.07741151570114464
16.851872246696036,-0.12974132920755446
16.8852422907489,-0.16336790201401863
16.91861233480176,-0.1852418571229591
16.951982378854627,-0.20633053879430327
16.98535242290749,-0.23557307652729068
17.01872246696035,-0.2748853388904645
17.052092511013218,-0.317637166524443
17.08546255506608,-0.3511521296830817
17.118832599118942,-0.3618264832660895
17.152202643171808,-0.3404189424920448
17.18557268722467,-0.28529732395033064
