Time (s),Filtered Signal
0.0,0.04723779364983691
0.03337008452774715,-0.3356964111943025
0.0667401690554943,-0.7559351456889869
0.10011025358324147,-1.2094380395079187
0.1334803381109886,-1.6375281539103512
0.16685042263873576,-1.9488537915413127
0.20022050716648293,-2.064325506475513
0.23359059169423008,-1.9582914597361707
0.2669606762219772,-1.6724828846301847
0.30033076074972437,-1.2961200262274284
0.3337008452774715,-0.9247426606495681
0.36707092980521866,-0.6206861150674546
0.40044101433296586,-0.39517519043012145
0.433811098860713,-0.21906140901066937
0.46718118338846015,-0.05398725690905761
0.5005512679162073,0.11428191794516063
0.5339213524439544,0.25928958854704476
0.5672914369717016,0.32441289962859887
0.6006615214994487,0.2567806225468796
0.6340316060271959,0.047706792826730945
0.667401690554943,-0.24295147724128935
0.7007717750826902,-0.49538313877577356
0.7341418596104373,-0.5725591383765812
0.7675119441381845,-0.3801014746889681
0.8008820286659317,0.08452872602491562
0.8342521131936789,0.7181215190209331
0.867622197721426,1.3416706807095407
0.9009922822491732,1.7625302429076266
0.9343623667769203,1.84320033047031
0.9677324513046675,1.5497377429681383
1.0011025358324146,0.9627620200017221
1.0344726203601617,0.24922751287415087
1.0678427048879089,-0.3931639230928241
1.101212789415656,-0.7989583419999056
1.1345828739434032,-0.8842860405518141
1.1679529584711503,-0.66697792484607
1.2013230429988975,-0.2524232655054515
1.2346931275266446,0.20759870629210353
1.2680632120543918,0.5664796639662483
1.301433296582139,0.7256674738326782
1.334803381109886,0.6554576935352371
1.3681734656376332,0.39105163246108937
1.4015435501653803,0.01152358439537796
1.4349136346931275,-0.3859831193654716
1.4682837192208746,-0.7070892006689334
1.5016538037486218,-0.8734587703138441
1.535023888276369,-0.8323975684653907
1.568393972804116,-0.567806708762065
1.6017640573318634,-0.11256079071209028
1.6351341418596106,0.44492012014038035
1.6685042263873577,0.9705193178229555
1.7018743109151049,1.3164011849057475
1.735244395442852,1.3688167443129458
1.7686144799705992,1.0932563288367358
1.8019845644983463,0.5547079905769158
1.8353546490260935,-0.10027574378550905
1.8687247335538406,-0.695011420409453
1.9020948180815878,-1.0858554352943834
1.935464902609335,-1.209268359617533
1.968834987137082,-1.093478719575787
2.002205071664829,-0.8335045792588187
2.0355751561925763,-0.545378989413121
2.0689452407203235,-0.3224240871698003
2.1023153252480706,-0.21093034316315656
2.1356854097758178,-0.20965279896420935
2.169055494303565,-0.2855852797659383
2.202425578831312,-0.3937551629595305
2.235795663359059,-0.4919256967396622
2.2691657478868064,-0.5478586573940074
2.3025358324145535,-0.5418149622861944
2.3359059169423007,-0.46757769931691967
2.369276001470048,-0.332755610212796
2.402646085997795,-0.15689641680542804
2.436016170525542,0.03362776618296043
2.4693862550532892,0.21254196313503831
2.5027563395810364,0.359221006804136
2.5361264241087835,0.4606789338625879
2.5694965086365307,0.5108258173280545
2.602866593164278,0.5100803583275226
2.636236677692025,0.46759653822278824
2.669606762219772,0.4048258686254589
2.7029768467475193,0.35585132321905
2.7363469312752664,0.36007752099519463
2.7697170158030135,0.4471785641431121
2.8030871003307607,0.6201279354075714
2.836457184858508,0.845503269657655
2.869827269386255,1.0582962134307048
2.903197353914002,1.1817884643758536
2.9365674384417493,1.155313560528399
2.9699375229694964,0.9582059195319399
3.0033076074972436,0.6193748118248332
3.0366776920249907,0.2081423826611655
3.070047776552738,-0.18980551492293543
3.103417861080485,-0.5011892171344058
3.136787945608232,-0.6869369483968664
3.1701580301359793,-0.749169906443662
3.203528114663727,-0.7226656807243946
3.236898199191474,-0.6568453520588342
3.270268283719221,-0.5972994591057474
3.3036383682469683,-0.573903732679812
3.3370084527747155,-0.5974566251522855
3.3703785373024626,-0.6620436987713415
3.4037486218302098,-0.7488959292999
3.437118706357957,-0.8296162262323423
3.470488790885704,-0.8698857611597441
3.503858875413451,-0.83605666961736
3.5372289599411983,-0.7051448604972227
3.5705990444689455,-0.47519028848168504
3.6039691289966926,-0.17075189521539763
3.63733921352444,0.16051288136481828
3.670709298052187,0.46014403036762985
3.704079382579934,0.6755536020469406
3.7374494671076812,0.7744784310445361
3.7708195516354284,0.7519648053019924
3.8041896361631755,0.6284324532090373
3.8375597206909227,0.4413068207288226
3.87092980521867,0.23468459094262695
3.904299889746417,0.05073591350165566
3.937669974274164,-0.07603557130054613
3.9710400588019112,-0.12296079822455983
4.004410143329658,-0.08352281741589915
4.0377802278574055,0.02835140856719886
4.071150312385153,0.17697507233747026
4.1045203969129,0.3107172424392565
4.137890481440647,0.3769305804848049
4.171260565968394,0.3427383599600745
4.204630650496141,0.2129315880273791
4.238000735023888,0.03438523418025932
4.2713708195516356,-0.11923716685090771
4.304740904079383,-0.1791277518151578
4.33811098860713,-0.1158389929568902
4.371481073134877,0.04131926853434717
4.404851157662624,0.2128216473211957
4.438221242190371,0.30468360205921735
4.471591326718118,0.2553322467946296
4.504961411245866,0.06918363951823021
4.538331495773613,-0.18267984557473366
4.57170158030136,-0.3975279881708482
4.605071664829107,-0.49434503358904464
4.638441749356854,-0.4564524587135609
4.671811833884601,-0.3387202898832316
4.7051819184123485,-0.23375913052622055
4.738552002940096,-0.2148212213153875
4.771922087467843,-0.2873391166475041
4.80529217199559,-0.37754463706746283
4.838662256523337,-0.36691066485122115
4.872032341051084,-0.15604697742710533
4.905402425578831,0.27490547697590745
4.9387725101065785,0.8413196730801088
4.972142594634326,1.3786534463965816
5.005512679162073,1.7057754983340558
5.03888276368982,1.6975172112812589
5.072252848217567,1.3334659133913658
5.105622932745314,0.7026264753041517
5.138993017273061,-0.035110974745846
5.1723631018008085,-0.7107186711576465
5.205733186328556,-1.2029545782570514
5.239103270856303,-1.467829735292866
5.27247335538405,-1.5327933948848225
5.305843439911797,-1.4641966003796756
5.339213524439544,-1.3270603555606695
5.372583608967291,-1.156787412675694
5.4059536934950385,-0.9540892195197362
5.439323778022786,-0.7017933409660314
5.472693862550533,-0.3915376882973824
5.50606394707828,-0.04444154715699073
5.539434031606027,0.2860151559391299
5.572804116133774,0.5310603452527703
5.606174200661521,0.6357065098516849
5.6395442851892685,0.5860632676929346
5.672914369717016,0.42178903533921064
5.706284454244763,0.22688424284752537
5.73965453877251,0.1009567888431961
5.773024623300257,0.12117517607726679
5.806394707828004,0.3095805718290308
5.839764792355751,0.6196034668604016
5.873134876883499,0.9492452919515394
5.906504961411246,1.1780119981178934
5.939875045938993,1.2140421007919207
5.97324513046674,1.0319128800672563
6.006615214994487,0.6840983212899571
6.039985299522234,0.27990691455208744
6.073355384049981,-0.05970494826038203
6.106725468577729,-0.2517970517269939
6.140095553105476,-0.2836035654470148
6.173465637633223,-0.21299883835775346
6.20683572216097,-0.13739554425636274
6.240205806688717,-0.1454704413383798
6.273575891216464,-0.27387347397933537
6.3069459757442115,-0.4887638051816267
6.340316060271959,-0.7005848616928658
6.373686144799706,-0.8051390221221194
6.407056229327454,-0.7319383174287343
6.440426313855201,-0.4777382092573834
6.473796398382948,-0.11050054024258145
6.507166482910695,0.2569362567106757
6.540536567438442,0.5104168251150325
6.5739066519661895,0.5753147124498215
6.607276736493937,0.4377802621100412
6.640646821021684,0.14039636927989044
6.674016905549431,-0.2411536472772485
6.707386990077178,-0.6262329907234312
6.740757074604925,-0.9490042429294775
6.774127159132672,-1.1644219146488772
6.8074972436604195,-1.2443174552543286
6.840867328188167,-1.1723264885740483
6.874237412715914,-0.9445960668720186
6.907607497243661,-0.5767381239998136
6.940977581771408,-0.11111399435108128
6.974347666299155,0.3835071608691306
7.007717750826902,0.8243525747770851
7.0410878353546495,1.1366828130812274
7.074457919882397,1.276870520810189
7.107828004410144,1.246006041181618
7.141198088937891,1.0870786685094753
7.174568173465638,0.8662664248153157
7.207938257993385,0.646590232683051
7.241308342521132,0.46606689037828736
7.27467842704888,0.33019477078595794
7.308048511576627,0.22105373536974116
7.341418596104374,0.11647234991477107
7.374788680632121,0.007534393993334323
7.408158765159868,-0.09581588597438785
7.441528849687615,-0.1738875865496515
7.4748989342153624,-0.2147260137798186
7.50826901874311,-0.22804329964291997
7.541639103270857,-0.2451558191238197
7.575009187798604,-0.3025106795168201
7.608379272326351,-0.4165918371264651
7.641749356854098,-0.5645359289423275
7.675119441381845,-0.6836105177852384
7.7084895259095925,-0.6939043600477799
7.74185961043734,-0.5363996383204168
7.775229694965087,-0.20921718053765956
7.808599779492834,0.21676540358575483
7.841969864020581,0.6140855239268934
7.875339948548328,0.8437554724092617
7.908710033076075,0.8118960314410804
7.9420801176038225,0.5129212420730939
7.97545020213157,0.038047593801139444
8.008820286659317,-0.45726095512765735
8.042190371187063,-0.8139764703350797
8.075560455714811,-0.9314454483958915
8.108930540242557,-0.8028683657093522
8.142300624770305,-0.509590715976392
8.175670709298052,-0.17931754779512313
8.2090407938258,0.07047741569725154
8.242410878353546,0.17810010137048896
8.275780962881294,0.15432278658623896
8.30915104740904,0.06737623402001361
8.342521131936788,0.007069772038050932
8.375891216464534,0.045187812493173225
8.409261300992283,0.20730013136054795
8.442631385520029,0.4639901031532328
8.476001470047777,0.7416889265194114
8.509371554575523,0.9477020306515942
8.542741639103271,1.0011632016919723
8.57611172363102,0.860792560462966
8.609481808158765,0.5409822143490861
8.642851892686513,0.11030065299449654
8.67622197721426,-0.32850791693376674
8.709592061742008,-0.6713498837464682
8.742962146269754,-0.8470835229158458
8.776332230797502,-0.8402783869431705
8.809702315325248,-0.6932769530381852
8.843072399852996,-0.48651766179239253
8.876442484380743,-0.30492914390226517
8.90981256890849,-0.20390126326717892
8.943182653436237,-0.18851858681084074
8.976552737963985,-0.2144712465204484
9.009922822491731,-0.2105114594474238
9.04329290701948,-0.1137266365272542
9.076662991547225,0.09663405959039334
9.110033076074973,0.3814045841024513
9.14340316060272,0.649109691708858
9.176773245130468,0.7885729765265577
9.210143329658214,0.7153861725111511
9.243513414185962,0.4135077019669022
9.276883498713708,-0.047207436392593394
9.310253583241456,-0.5284463968104616
9.343623667769203,-0.8719469661116632
9.37699375229695,-0.9600909826173547
9.410363836824697,-0.7620301133860002
9.443733921352445,-0.34390111600139545
9.477104005880191,0.16177753476270768
9.51047409040794,0.6125250686556729
9.543844174935685,0.9106134867328829
9.577214259463434,1.0305337345201377
9.61058434399118,1.0090559866507198
9.643954428518928,0.9077671683202527
9.677324513046674,0.7714764494732556
9.710694597574422,0.6058030114667203
9.744064682102168,0.3844848231695623
9.777434766629916,0.07931858731508935
9.810804851157663,-0.3068253628603946
9.84417493568541,-0.7242466318172546
9.877545020213157,-1.0876895162859983
9.910915104740905,-1.3091190337412575
9.944285189268651,-1.3351078050414067
9.9776552737964,-1.170220443599387
10.011025358324146,-0.8755626185741806
10.044395442851894,-0.543890462363258
10.07776552737964,-0.2629153889059097
10.111135611907388,-0.08243367202832591
10.144505696435134,0.0018741346191401055
10.177875780962882,0.04230829414659442
10.211245865490628,0.11330414825839215
10.244615950018376,0.27536448000887137
10.277986034546123,0.5422552731449575
10.31135611907387,0.8651051881010007
10.344726203601617,1.1424982138642694
10.378096288129365,1.2564342922036023
10.411466372657111,1.1224980104538673
10.44483645718486,0.733665694797914
10.478206541712606,0.17644682285564547
10.511576626240354,-0.3919425430238913
10.5449467107681,-0.7991341842982596
10.578316795295848,-0.9230019858793237
10.611686879823594,-0.7376502726377274
10.645056964351342,-0.31925774410026986
10.678427048879088,0.18934756869712782
10.711797133406836,0.636369431152816
10.745167217934583,0.9126068637794708
10.77853730246233,0.9749712695247701
10.811907386990077,0.8378183462698395
10.845277471517825,0.5459395312908665
10.878647556045571,0.15042234249808
10.91201764057332,-0.29841406391748126
10.945387725101066,-0.7426381920261589
10.978757809628814,-1.1079911037706673
11.01212789415656,-1.3114935167387143
11.045497978684308,-1.2900861765123943
11.078868063212054,-1.037415814058465
11.112238147739802,-0.6249793896736557
11.145608232267548,-0.1882660865098542
11.178978316795297,0.12296353417363554
11.212348401323043,0.20938124553110452
11.24571848585079,0.0695113049486624
11.279088570378537,-0.19586457104374558
11.312458654906285,-0.42684771775560965
11.345828739434031,-0.4756009081863455
11.37919882396178,-0.2722145447712875
11.412568908489526,0.14493209735264764
11.445938993017274,0.6468738917161789
11.47930907754502,1.0698318330402543
11.512679162072768,1.282613261140869
11.546049246600514,1.2359257397674699
11.579419331128262,0.9741065141267784
11.612789415656009,0.6076985874572555
11.646159500183757,0.2622891999797646
11.679529584711503,0.027647930823530148
11.71289966923925,-0.07150463479130965
11.746269753766997,-0.07338472908368172
11.779639838294745,-0.05041808669739736
11.813009922822491,-0.06939034620116881
11.84638000735024,-0.1590494747528565
11.879750091877986,-0.29879872196873986
11.913120176405734,-0.4319461579694781
11.94649026093348,-0.496021353798911
11.979860345461228,-0.45540784310047505
12.013230429988974,-0.3208846671176166
12.046600514516722,-0.1468241289192173
12.079970599044469,-0.0071001649283848715
12.113340683572217,0.039262260773957496
12.146710768099963,-0.023457360242525108
12.180080852627711,-0.15892236256115494
12.213450937155457,-0.29439611529903775
12.246821021683205,-0.35380936629379
12.280191106210951,-0.29271333518123077
12.3135611907387,-0.11863198904028592
12.346931275266446,0.11257881744517713
12.380301359794194,0.32224341305024595
12.41367144432194,0.4438901124792816
12.447041528849688,0.451270349085973
12.480411613377434,0.36651987114161305
12.513781697905182,0.2452077976541567
12.547151782432929,0.14602908404351148
12.580521866960677,0.10016370278222883
12.613891951488423,0.09540714336223378
12.647262036016171,0.08303495605075174
12.680632120543917,0.004462220792442118
12.714002205071665,-0.174697166247779
12.747372289599411,-0.4392674035791663
12.78074237412716,-0.7204238408617695
12.814112458654908,-0.916439450089534
12.847482543182654,-0.9311159712775139
12.880852627710402,-0.7147008434853154
12.914222712238148,-0.2900520343035185
12.947592796765896,0.24802142733114257
12.980962881293642,0.7615992787825273
13.01433296582139,1.1160444285508888
13.047703050349137,1.225471379293845
13.081073134876885,1.0790394932627319
13.114443219404631,0.738368514483683
13.147813303932379,0.30922379773656883
13.181183388460125,-0.09857635348290926
13.214553472987873,-0.40558091022671716
13.24792355751562,-0.5790385844392564
13.281293642043368,-0.628881704014477
13.314663726571114,-0.5905068076298363
13.348033811098862,-0.5053982209830511
13.381403895626608,-0.40803128735629685
13.414773980154356,-0.32124682815939654
13.448144064682102,-0.25690873025016514
13.48151414920985,-0.21724762156155922
13.514884233737597,-0.19477160812567107
13.548254318265345,-0.17223913346357456
13.581624402793091,-0.12580460007604677
13.614994487320839,-0.03281713481793244
13.648364571848585,0.11781388982060878
13.681734656376333,0.3175769686479295
13.71510474090408,0.5374395645292974
13.748474825431828,0.7356888545058891
13.781844909959574,0.8717367018106813
13.815214994487322,0.9199480701081143
13.848585079015068,0.8774132857144943
13.881955163542816,0.762422521438277
13.915325248070562,0.6046638309945773
13.94869533259831,0.43178844098713065
13.982065417126057,0.2584262617697286
14.015435501653805,0.08251811763007706
14.048805586181551,-0.10943000426356526
14.082175670709299,-0.33049645689335333
14.115545755237045,-0.58019977026393
14.148915839764793,-0.8361456134783988
14.18228592429254,-1.0548248439387151
14.215656008820288,-1.182438854442015
14.249026093348034,-1.1727780994984587
14.282396177875782,-1.0063027754324347
14.315766262403528,-0.7034796425889933
14.349136346931276,-0.3263977633405862
14.382506431459023,0.03428714071748844
14.41587651598677,0.2852699565332426
14.449246600514517,0.36214076148327157
14.482616685042265,0.25529824748668856
14.515986769570011,0.018787884439067745
14.54935685409776,-0.24437629624644394
14.582726938625505,-0.4177388928337337
14.616097023153253,-0.41553192045650245
14.649467107681,-0.21779668451352688
14.682837192208748,0.11897305367154773
14.716207276736494,0.4816986682994889
14.749577361264242,0.7443244648772934
14.782947445791988,0.8180035834911519
14.816317530319736,0.6873686263472074
14.849687614847483,0.41752811040899035
14.88305769937523,0.12795721217798392
14.916427783902977,-0.05700996104924336
14.949797868430725,-0.06099717895262252
14.983167952958471,0.11112536651587039
15.01653803748622,0.3752808993226616
15.049908122013965,0.6062833059003884
15.083278206541713,0.6956621186896185
15.11664829106946,0.6021918848386326
15.150018375597208,0.370223040645203
15.183388460124954,0.10612421950725735
15.216758544652702,-0.07570117081014871
15.250128629180448,-0.10989430796325607
15.283498713708196,-0.011294319849096426
15.316868798235943,0.13524354406440442
15.35023888276369,0.22026142302244558
15.383608967291437,0.16639678089645646
15.416979051819185,-0.032597316857278284
15.450349136346931,-0.3096351244411947
15.48371922087468,-0.5589517167743551
15.517089305402425,-0.6893182322178192
15.550459389930174,-0.6688610626663022
15.58382947445792,-0.5394624923831234
15.617199558985668,-0.3943060188505191
15.650569643513414,-0.3303719643133981
15.683939728041162,-0.3996167057783074
15.717309812568908,-0.5825913062105743
15.750679897096656,-0.796721621861543
15.784049981624403,-0.934335995490904
15.81742006615215,-0.9113691092591749
15.850790150679897,-0.7034600511553608
15.884160235207645,-0.35371380896535876
15.917530319735391,0.048669037416970436
15.95090040426314,0.40565608429719024
15.984270488790886,0.6446788412124621
16.017640573318634,0.7361517969036171
16.05101065784638,0.6918606806302605
16.084380742374126,0.5518936724816194
16.117750826901876,0.37039690130102126
16.151120911429622,0.20546570245981213
16.18449099595737,0.11129801508933637
16.217861080485115,0.12782241902428387
16.251231165012864,0.2668472715633386
16.28460124954061,0.5008791791218801
16.317971334068357,0.7644473117320645
16.351341418596103,0.973544192850749
16.384711503123853,1.058210441318968
16.4180815876516,0.9932832465241511
16.451451672179346,0.8103532840660732
16.484821756707092,0.5825457019967688
16.51819184123484,0.38835768281731775
16.551561925762588,0.27275289825058263
16.584932010290334,0.22578895603995652
16.61830209481808,0.18995224603647817
16.65167217934583,0.09225438720959878
16.685042263873576,-0.11575377742597158
16.718412348401323,-0.430880850049857
16.75178243292907,-0.7980867287290421
16.78515251745682,-1.136951014059324
16.818522601984565,-1.380266199022421
16.85189268651231,-1.5033809521016632
16.885262771040058,-1.52785680617767
16.918632855567807,-1.497756914251018
16.952002940095554,-1.443491568004096
16.9853730246233,-1.3565700227545519
17.018743109151046,-1.1928597822424991
17.052113193678796,-0.9045304211101994
17.085483278206542,-0.4820500863492393
17.11885336273429,0.020616583729298348
17.15222344726204,0.4962273157443083
17.185593531789785,0.8282196943621656
17.21896361631753,0.9464534048006917
17.252333700845277,0.8646895726950626
17.285703785373027,0.6785897381337065
17.319073869900773,0.5235806208312801
17.35244395442852,0.5127110703153472
17.385814038956266,0.6846386171173303
