Time (s),Filtered Signal
0.0,0.05209408898478891
0.033370535714285714,0.01511758708511577
0.06674107142857143,-0.006155117767750933
0.10011160714285713,-0.0021577830330281184
0.13348214285714285,0.02705718941659911
0.16685267857142858,0.0739892322991931
0.20022321428571427,0.1291680536746131
0.23359375,0.1861505317725669
0.2669642857142857,0.24289456039327098
0.30033482142857143,0.29907239475851827
0.33370535714285715,0.35175707162470576
0.36707589285714287,0.39303207049586886
0.40044642857142854,0.41175550556047474
0.43381696428571426,0.39887233603549527
0.4671875,0.3531509339136945
0.5005580357142857,0.28362160349528087
0.5339285714285714,0.206726394749825
0.5672991071428571,0.13924866033397557
0.6006696428571429,0.09064973721685868
0.6340401785714286,0.05893746392818843
0.6674107142857143,0.03229512609820991
0.70078125,-0.004463041971954385
0.7341517857142857,-0.06208153612998515
0.7675223214285715,-0.14163027542905138
0.8008928571428571,-0.23405664562144557
0.8342633928571428,-0.3240592270562863
0.8676339285714285,-0.39587323980384836
0.9010044642857142,-0.4383142454541403
0.934375,-0.4476081239453807
0.9677455357142857,-0.4279880889730978
1.0011160714285714,-0.39069727520271885
1.0344866071428571,-0.3517073401863788
1.0678571428571428,-0.32788217724743196
1.1012276785714286,-0.3314616351564734
1.1345982142857143,-0.363959707699999
1.16796875,-0.412141033268823
1.2013392857142857,-0.4492510240721735
1.2347098214285714,-0.4430749599683354
1.2680803571428572,-0.36897873486761923
1.3014508928571429,-0.2226163127127751
1.3348214285714286,-0.025780038078864167
1.3681919642857143,0.17877797072023435
1.4015625,0.34257573551301734
1.4349330357142858,0.4303927707853197
1.4683035714285715,0.4343112312787459
1.5016741071428572,0.3761726468449529
1.535044642857143,0.2974595737003679
1.5684151785714286,0.24177475770182474
1.6017857142857141,0.23837908992963067
1.6351562499999999,0.29394955269271156
1.6685267857142856,0.39480027197737316
1.7018973214285713,0.5162742104844588
1.735267857142857,0.6330206147382039
1.7686383928571427,0.7248651387975499
1.8020089285714285,0.776928928678745
1.8353794642857142,0.7768273577076926
1.86875,0.7134801269038009
1.9021205357142856,0.5802882883289074
1.9354910714285714,0.38147909327599167
1.968861607142857,0.13707072596110065
2.002232142857143,-0.11835928032451762
2.0356026785714287,-0.34463394306965156
2.0689732142857142,-0.5093417266418614
2.10234375,-0.5990604405592662
2.1357142857142857,-0.6225553805371005
2.169084821428571,-0.6043304041588796
2.202455357142857,-0.5721513507337291
2.2358258928571426,-0.5452010671074201
2.2691964285714286,-0.5286770763403662
2.302566964285714,-0.5166264327347615
2.3359375,-0.500120581983237
2.3693080357142855,-0.47519684731187584
2.4026785714285714,-0.4457114106782475
2.436049107142857,-0.4197563275902986
2.469419642857143,-0.4024250569420955
2.5027901785714284,-0.3899978598987156
2.5361607142857143,-0.36970905590786196
2.56953125,-0.32571929887731305
2.6029017857142858,-0.24791920571437617
2.6362723214285713,-0.13822417441825371
2.669642857142857,-0.010366064496209606
2.7030133928571427,0.1169100613312126
2.7363839285714286,0.22925818986074897
2.769754464285714,0.3230707867418764
2.803125,0.4048744321813531
2.8364955357142856,0.48417384487341014
2.8698660714285715,0.5642341968284305
2.903236607142857,0.6366683507237721
2.936607142857143,0.6834756543938464
2.9699776785714285,0.6857257722818141
3.0033482142857144,0.6341180625084059
3.03671875,0.5355184090130571
3.070089285714286,0.4118132039278666
3.1034598214285714,0.29155111692537056
3.1368303571428573,0.19846824454785608
3.170200892857143,0.14228599887748813
3.2035714285714283,0.11578192726371196
3.2369419642857142,0.09906975918161527
3.2703124999999997,0.06887284339181858
3.3036830357142857,0.00867384311847894
3.337053571428571,-0.08441111799649158
3.370424107142857,-0.1985408120620298
3.4037946428571426,-0.31182379654868636
3.4371651785714286,-0.4004269088708761
3.470535714285714,-0.44663447068573164
3.50390625,-0.4438269729592491
3.5372767857142855,-0.39707071392166754
3.5706473214285714,-0.32003672321771404
3.604017857142857,-0.23023143565670345
3.637388392857143,-0.14451313996504697
3.6707589285714284,-0.07593212789316622
3.7041294642857143,-0.03193556326805109
3.7375,-0.013596584198437974
3.7708705357142858,-0.01576756148682364
3.8042410714285713,-0.02840689328518792
3.837611607142857,-0.03930450992250923
3.8709821428571427,-0.03795531785097924
3.9043526785714286,-0.019664080359705797
3.937723214285714,0.01154703036253674
3.97109375,0.04272895669839256
4.004464285714286,0.05541999675553929
4.0378348214285715,0.03235538150559026
4.0712053571428575,-0.034469325044343094
4.1045758928571425,-0.13758230118105574
4.1379464285714285,-0.2529457964077213
4.171316964285714,-0.34572624902184895
4.2046875,-0.3818464866506487
4.238058035714285,-0.34131561993671927
4.271428571428571,-0.22775310739897817
4.304799107142857,-0.0693370204799449
4.338169642857142,0.09036649942853912
4.371540178571428,0.2087714724642847
4.404910714285714,0.26120572228659766
4.43828125,0.25077634172987695
4.471651785714285,0.20615094186477972
4.505022321428571,0.16763729776454164
4.538392857142857,0.1676689387640407
4.571763392857143,0.2149058111737743
4.605133928571428,0.2898089456098564
4.638504464285714,0.35417855281332766
4.671875,0.3703425138541886
4.705245535714286,0.32084387684559484
4.738616071428571,0.2190197392189882
4.771986607142857,0.10501718641355161
4.805357142857143,0.028566673093823835
4.838727678571429,0.0260729673790365
4.872098214285714,0.10244335559601367
4.90546875,0.22623381107543758
4.938839285714286,0.3408941808921836
4.972209821428572,0.3876462936404042
5.005580357142857,0.33011126547111164
5.038950892857143,0.16981302384614902
5.072321428571429,-0.05425605540612523
5.105691964285715,-0.28153881121695035
5.1390625,-0.4538045472719416
5.172433035714286,-0.5362261964124283
5.2058035714285715,-0.5267801070569812
5.2391741071428575,-0.4511785436597044
5.2725446428571425,-0.34754256792162125
5.3059151785714285,-0.24935842188334953
5.339285714285714,-0.17488155338914177
5.3726562499999995,-0.1266128362485103
5.406026785714285,-0.09855676246267728
5.439397321428571,-0.08507245867999505
5.472767857142857,-0.08529776646007485
5.506138392857142,-0.100943069406408
5.539508928571428,-0.13014149122804786
5.572879464285714,-0.1628610077403561
5.60625,-0.1823407037591934
5.639620535714285,-0.17279635699929508
5.672991071428571,-0.12901788849044749
5.706361607142857,-0.061549383385398775
5.739732142857143,0.006692927369696505
5.773102678571428,0.051477709286844434
5.806473214285714,0.06029165180004764
5.83984375,0.04003940468870796
5.873214285714286,0.014736774571559202
5.906584821428571,0.013935227614105025
5.939955357142857,0.057738389722206816
5.973325892857143,0.14622411011079675
6.006696428571429,0.2587827719872804
6.040066964285714,0.3636148346436612
6.0734375,0.43231682496250046
6.106808035714286,0.45200999661418473
6.140178571428572,0.42906443450296505
6.173549107142857,0.3831068575730325
6.206919642857143,0.3350638998211045
6.240290178571429,0.2958225267199863
6.273660714285715,0.261371838394654
6.30703125,0.21660957577219753
6.340401785714286,0.14538385806781887
6.3737723214285715,0.041184566692954463
6.407142857142857,-0.08723769605086851
6.4405133928571425,-0.2181901779389597
6.4738839285714285,-0.32591272526787735
6.507254464285714,-0.39132244303604524
6.5406249999999995,-0.4093238219732807
6.573995535714285,-0.38958427692993985
6.607366071428571,-0.3511932111255359
6.640736607142857,-0.31434218274392695
6.674107142857142,-0.29277250923355824
6.707477678571428,-0.28945908141026394
6.740848214285714,-0.29615163165074293
6.77421875,-0.296208268667199
6.807589285714285,-0.2698764664942334
6.840959821428571,-0.20113908116200896
6.874330357142857,-0.08474200312928444
6.907700892857143,0.0688677071468694
6.941071428571428,0.23334621045277743
6.974441964285714,0.37259083324688075
7.0078125,0.4522292723011891
7.041183035714286,0.4525135664951584
7.074553571428571,0.37707507809952895
7.107924107142857,0.2530652306109909
7.141294642857143,0.12181922690489447
7.174665178571429,0.023635781978399818
7.208035714285714,-0.016829881493422728
7.24140625,0.0016541213110153024
7.274776785714286,0.058850702619269814
7.308147321428572,0.12315684113375232
7.341517857142857,0.16492332436572607
7.374888392857143,0.1673239098828777
7.408258928571429,0.130917213587767
7.441629464285715,0.07110930334477363
7.475,0.010441506472271557
7.508370535714286,-0.03100442234199201
7.5417410714285715,-0.043798897158716085
7.575111607142857,-0.033449031952959396
7.6084821428571425,-0.019306490510141876
7.6418526785714285,-0.027914539739059857
7.675223214285714,-0.0823393499491393
7.7085937499999995,-0.19094517438448783
7.741964285714285,-0.3402095439779189
7.775334821428571,-0.4954410725898647
7.808705357142857,-0.6103987038001343
7.842075892857142,-0.6428770506486582
7.875446428571428,-0.5702554866697995
7.908816964285714,-0.39853333617830444
7.9421875,-0.16096602321255776
7.975558035714285,0.0930549725568679
8.008928571428571,0.3139813515619621
8.042299107142856,0.4662025778702761
8.075669642857143,0.5349742832214659
8.109040178571428,0.5248178325715632
8.142410714285715,0.4522235734591542
8.17578125,0.337660349964022
8.209151785714285,0.20097040806755004
8.242522321428572,0.06104429357381121
8.275892857142857,-0.06257542452018577
8.309263392857142,-0.14970763412996874
8.342633928571429,-0.18321397042437873
8.376004464285714,-0.15537934978063456
8.409375,-0.07354760926798455
8.442745535714286,0.03879670875145488
8.47611607142857,0.1473825477437515
8.509486607142858,0.21771860207853339
8.542857142857143,0.2269888158644152
8.576227678571428,0.1724607382064531
8.609598214285715,0.072791058822236
8.64296875,-0.03858552263816702
8.676339285714285,-0.1255812186839593
8.709709821428572,-0.16240677072392493
8.743080357142857,-0.14228890523653337
8.776450892857143,-0.07862986787409758
8.809821428571428,0.0015696815185951966
8.843191964285714,0.06899901060342012
8.8765625,0.10316323693731028
8.909933035714285,0.09880414817417256
8.94330357142857,0.06540212984405505
8.976674107142857,0.020749862723458745
9.010044642857142,-0.017854862742514216
9.04341517857143,-0.04051612320569932
9.076785714285714,-0.04681721298718705
9.11015625,-0.04282354307069112
9.143526785714286,-0.03539698359079824
9.176897321428571,-0.02743539566628323
9.210267857142856,-0.01684069413514111
9.243638392857143,0.0003773133946477753
9.277008928571428,0.02506470697566231
9.310379464285715,0.0514263217469218
9.34375,0.06766660946105524
9.377120535714285,0.06086283364142881
9.410491071428572,0.023560318232842443
9.443861607142857,-0.041540001155753306
9.477232142857142,-0.12142803660428027
9.510602678571429,-0.1973358979344212
9.543973214285714,-0.2517493592701306
9.57734375,-0.27459548635426684
9.610714285714286,-0.2660480090216231
9.64408482142857,-0.23522587465980774
9.677455357142858,-0.1958809174550772
9.710825892857143,-0.16113516357549781
9.744196428571428,-0.13925161623490867
9.777566964285715,-0.13165306660344128
9.8109375,-0.13344431479693697
9.844308035714285,-0.13588827223913735
9.877678571428572,-0.12975089825821373
9.911049107142857,-0.10819746392959342
9.944419642857143,-0.06811564857505598
9.977790178571428,-0.009512887472674496
10.011160714285714,0.0661632593205037
10.04453125,0.15701183132270866
10.077901785714285,0.2595085382254893
10.11127232142857,0.3655271741523704
10.144642857142857,0.4601417402703177
10.178013392857142,0.523514465252399
10.21138392857143,0.5381173751274493
10.244754464285714,0.4985614368399867
10.278125,0.41816648700977965
10.311495535714286,0.32680765216424995
10.344866071428571,0.2589974532591874
10.378236607142856,0.23718294613687424
10.411607142857143,0.2590026348547927
10.444977678571428,0.2960683041090499
10.478348214285715,0.30604380989316454
10.51171875,0.2526020829588121
10.545089285714285,0.12337571247520238
10.578459821428572,-0.06316394450401908
10.611830357142857,-0.26529704761304773
10.645200892857142,-0.4360995397934956
10.678571428571429,-0.5427562087728729
10.711941964285714,-0.5777357857539308
10.745312499999999,-0.5571370495807159
10.778683035714286,-0.5084733125876534
10.81205357142857,-0.45547918941453425
10.845424107142858,-0.4083216274714377
10.878794642857143,-0.3636768142480569
10.912165178571428,-0.31304953104199196
10.945535714285715,-0.25313296968125754
10.97890625,-0.19143901469040867
11.012276785714285,-0.14381297110741842
11.045647321428572,-0.1254805900873345
11.079017857142857,-0.141004726505781
11.112388392857143,-0.17903931638362666
11.145758928571428,-0.2150370318365193
11.179129464285714,-0.22074586919017736
11.2125,-0.1757723264702294
11.245870535714285,-0.07554426419316426
11.27924107142857,0.06789141216169532
11.312611607142857,0.2318569760674847
11.345982142857142,0.3918881686423518
11.37935267857143,0.5284003631779095
11.412723214285714,0.6281254407823917
11.44609375,0.6810829648094109
11.479464285714286,0.6770395617918308
11.512834821428571,0.6058597993335234
11.546205357142856,0.4634578962303229
11.579575892857143,0.2608062927274646
11.612946428571428,0.03025141720451878
11.646316964285715,-0.17666041148533324
11.6796875,-0.30211117420823824
11.713058035714285,-0.302413439378124
11.746428571428572,-0.16788476932046467
11.779799107142857,0.06707308559844054
11.813169642857142,0.32979073192027963
11.846540178571429,0.5307974524793019
11.879910714285714,0.59396434596358
11.913281249999999,0.4841710376472007
11.946651785714286,0.2215187547154625
11.98002232142857,-0.124229574482118
12.013392857142858,-0.45771701367655293
12.046763392857143,-0.6916566385405992
12.080133928571428,-0.7767918587431014
12.113504464285715,-0.7160682972691916
12.146875,-0.5576746434401877
12.180245535714285,-0.3709685556438235
12.213616071428572,-0.21678587570249128
12.246986607142857,-0.12552293968850628
12.280357142857143,-0.09180790696139311
12.313727678571428,-0.08601120607791349
12.347098214285714,-0.07477198059236766
12.38046875,-0.039208491164648626
12.413839285714285,0.017971433745057372
12.44720982142857,0.07842741680884889
12.480580357142857,0.1220302334052546
12.513950892857142,0.13975460830191455
12.54732142857143,0.13827906621585193
12.580691964285714,0.13436354925062624
12.6140625,0.14313483931430476
12.647433035714286,0.16769854010177626
12.680803571428571,0.19633140798903934
12.714174107142856,0.2088029539110772
12.747544642857143,0.18801104335870142
12.780915178571428,0.130194824397838
12.814285714285713,0.04803273853832365
12.84765625,-0.03489106135831159
12.881026785714285,-0.09500787773499227
12.914397321428572,-0.11915258038028917
12.947767857142857,-0.10918064715432456
12.981138392857142,-0.07894319435901147
13.014508928571429,-0.0457894685333046
13.047879464285714,-0.021370484221427566
13.081249999999999,-0.006532397965256404
13.114620535714286,0.007287783973358103
13.14799107142857,0.031222438498705547
13.181361607142858,0.07057416232950196
13.214732142857143,0.11953275620178039
13.248102678571428,0.16205171652141703
13.281473214285715,0.17870580607054784
13.31484375,0.15620035255240372
13.348214285714285,0.09475551771345272
13.381584821428572,0.009588494892234489
13.414955357142857,-0.07436927421723408
13.448325892857143,-0.13207111203170432
13.481696428571428,-0.1478099339713318
13.515066964285714,-0.12034538841456371
13.5484375,-0.0618547268350049
13.581808035714285,0.008055226977649472
13.61517857142857,0.06986361633424736
13.648549107142857,0.10961285705509907
13.681919642857142,0.12058040898978387
13.71529017857143,0.10190732039881453
13.748660714285714,0.05654822250081362
13.78203125,-0.009433581130690307
13.815401785714286,-0.08610801347271202
13.848772321428571,-0.15924415750116386
13.882142857142856,-0.2122932804033038
13.915513392857143,-0.23122404283103318
13.948883928571428,-0.21023218227806398
13.982254464285713,-0.1550541111165549
14.015625,-0.08153568045648918
14.048995535714285,-0.009724676333990082
14.082366071428572,0.043664214196601506
14.115736607142857,0.07070053969048291
14.149107142857142,0.07322857235825242
14.182477678571429,0.059598607781206375
14.215848214285714,0.03951945346405307
14.249218749999999,0.01996946639841682
14.282589285714286,0.003939182284883814
14.31595982142857,-0.008173752415808363
14.349330357142858,-0.01617692363863692
14.382700892857143,-0.018581223398073346
14.416071428571428,-0.01290374332315288
14.449441964285715,0.0026610212195676344
14.4828125,0.027483681356064056
14.516183035714285,0.057827957176373686
14.549553571428572,0.08760982143506961
14.582924107142857,0.11006036945122652
14.616294642857143,0.11942203047238992
14.649665178571428,0.1120951897125906
14.683035714285714,0.08720999385297211
14.71640625,0.046946055658213914
14.749776785714285,-0.003181475472814393
14.78314732142857,-0.05428359895440821
14.816517857142857,-0.09490909596155232
14.849888392857142,-0.1132658433107505
14.88325892857143,-0.10078025963101743
14.916629464285714,-0.05593829648655511
14.95,0.013388687672765959
14.983370535714286,0.0907840469647967
15.016741071428571,0.15571238272414678
15.050111607142856,0.19015687402003364
15.083482142857143,0.1847411029755796
15.116852678571428,0.14158363608327948
15.150223214285713,0.07259653311434942
15.18359375,-0.005818476131136371
15.216964285714285,-0.07892021675791548
15.250334821428572,-0.1375665037896332
15.283705357142857,-0.17833667973556772
15.317075892857142,-0.20064295815460143
15.350446428571429,-0.2035106323292482
15.383816964285714,-0.1847738493138267
15.417187499999999,-0.1435333263994298
15.450558035714286,-0.0840618451478208
15.48392857142857,-0.017798545089302363
15.517299107142858,0.039080986063443984
15.550669642857143,0.07212429039471568
15.584040178571428,0.07562166197087436
15.617410714285715,0.05572053100739324
15.65078125,0.027219145109411827
15.684151785714285,0.00555392080401105
15.717522321428572,-0.0013107397150247486
15.750892857142857,0.003832289090588778
15.784263392857143,0.010882809829064031
15.817633928571428,0.010251159206362971
15.851004464285714,-6.522415203743227e-05
15.884375,-0.012720199728440332
15.917745535714285,-0.01573852778457762
15.95111607142857,-0.0007823429635852008
15.984486607142857,0.03024800206791888
16.017857142857142,0.06459785464662067
16.05122767857143,0.08481495035287558
16.084598214285712,0.07836542890299628
16.11796875,0.04516188195536027
16.151339285714286,-0.001504086816973836
16.18470982142857,-0.04134860648386849
16.218080357142856,-0.057251295551692734
16.251450892857143,-0.043491196044874454
16.28482142857143,-0.0076748161604669185
16.318191964285713,0.03418183577922126
16.3515625,0.06603472973377775
16.384933035714287,0.07868161076262242
16.41830357142857,0.07165755078441612
16.451674107142857,0.05010196037199108
16.485044642857144,0.019594724005096438
16.518415178571427,-0.017158260892002876
16.551785714285714,-0.059548247544216594
16.58515625,-0.10495293562435284
16.618526785714284,-0.14451987631880878
16.65189732142857,-0.16249510458361263
16.685267857142858,-0.14082547215478222
16.71863839285714,-0.0675834853814936
16.752008928571428,0.054822836379643906
16.785379464285715,0.2061521002358721
16.81875,0.3520443502593176
16.852120535714285,0.45403737409147205
16.88549107142857,0.48193984876638146
16.91886160714286,0.42351566697569215
16.95223214285714,0.2877683013280343
16.98560267857143,0.10110656568350902
17.018973214285715,-0.1012876343701081
17.05234375,-0.2850286721839048
17.085714285714285,-0.42373434255220865
17.119084821428572,-0.5025692803627262
17.152455357142856,-0.5188029745493543
17.185825892857142,-0.4807872369806651
17.21919642857143,-0.4060596236827887
17.252566964285712,-0.31811333902853833
17.2859375,-0.24105125325680557
17.319308035714286,-0.19246637853941084
17.35267857142857,-0.17680338661645745
17.386049107142856,-0.18262573123135187
17.419419642857143,-0.18635606263452778
17.45279017857143,-0.1621707673858094
17.486160714285713,-0.09426078186994638
17.51953125,0.014330002762425366
17.552901785714287,0.14122333632521464
