Time (s),Filtered Signal
0.0,-0.06264431081866817
0.033370535714285714,-0.15083657988279833
0.06674107142857143,-0.253183277129413
0.10011160714285713,-0.3659493940924781
0.13348214285714285,-0.4596594006562129
0.16685267857142858,-0.4910814912131286
0.20022321428571427,-0.4277220902915877
0.23359375,-0.2711665417710515
0.2669642857142857,-0.06545794233472219
0.30033482142857143,0.11564698640026483
0.33370535714285715,0.19763309363998763
0.36707589285714287,0.13708091372263684
0.40044642857142854,-0.05833288308854276
0.43381696428571426,-0.33062127368011524
0.4671875,-0.5922933056916223
0.5005580357142857,-0.7577213706175798
0.5339285714285714,-0.7717935377092192
0.5672991071428571,-0.6249173817639088
0.6006696428571429,-0.35034965861026157
0.6340401785714286,-0.00773449296307656
0.6674107142857143,0.33815239226143884
0.70078125,0.6342639084976636
0.7341517857142857,0.8467263219910884
0.7675223214285715,0.9596178596220174
0.8008928571428571,0.9699189300978771
0.8342633928571428,0.8838941174796195
0.8676339285714285,0.7171977272747808
0.9010044642857142,0.4968748678016369
0.934375,0.2609932524764577
0.9677455357142857,0.05256578822259842
1.0011160714285714,-0.09186174333243308
1.0344866071428571,-0.1545374764015871
1.0678571428571428,-0.1436365784379907
1.1012276785714286,-0.09092534355708638
1.1345982142857143,-0.04002866853773714
1.16796875,-0.029846543111545304
1.2013392857142857,-0.07998249277308082
1.2347098214285714,-0.18420139760484766
1.2680803571428572,-0.31445313418231186
1.3014508928571429,-0.4334546209471301
1.3348214285714286,-0.5101276627409408
1.3681919642857143,-0.5309658637348473
1.4015625,-0.5023725469659484
1.4349330357142858,-0.4434674456070982
1.4683035714285715,-0.37369657307015647
1.5016741071428572,-0.3022341267705434
1.535044642857143,-0.22509044622991417
1.5684151785714286,-0.1315120236088966
1.6017857142857141,-0.01597599242756017
1.6351562499999999,0.1113150182422912
1.6685267857142856,0.22218096705324242
1.7018973214285713,0.2791612108033411
1.735267857142857,0.25208928536890085
1.7686383928571427,0.1348733251187027
1.8020089285714285,-0.046143482699984056
1.8353794642857142,-0.23742632961010854
1.86875,-0.37594427777600214
1.9021205357142856,-0.4120625577493817
1.9354910714285714,-0.3276680406953974
1.968861607142857,-0.14169152566080512
2.002232142857143,0.09897807750415462
2.0356026785714287,0.3386806693316706
2.0689732142857142,0.5337043504478414
2.10234375,0.6659326021575656
2.1357142857142857,0.7443245420870317
2.169084821428571,0.7943607348386551
2.202455357142857,0.8404487157925757
2.2358258928571426,0.889137492288387
2.2691964285714286,0.9208569914151543
2.302566964285714,0.8946224669129733
2.3359375,0.7646965687211502
2.3693080357142855,0.5027031523997115
2.4026785714285714,0.11567960955080459
2.436049107142857,-0.3483057122136528
2.469419642857143,-0.8103394526901451
2.5027901785714284,-1.1833576635013052
2.5361607142857143,-1.3987510538140033
2.56953125,-1.4266926102480342
2.6029017857142858,-1.2827757334805292
2.6362723214285713,-1.0194153774145303
2.669642857142857,-0.7067174653522095
2.7030133928571427,-0.4112118075090792
2.7363839285714286,-0.1802795469058016
2.769754464285714,-0.035930125616501496
2.803125,0.023484187323184868
2.8364955357142856,0.017888896503613808
2.8698660714285715,-0.020013455010286372
2.903236607142857,-0.04988653346678519
2.936607142857143,-0.030581694516220358
2.9699776785714285,0.06966428103312756
3.0033482142857144,0.2611065513241242
3.03671875,0.5234708655187706
3.070089285714286,0.8060536881094876
3.1034598214285714,1.0399399800754123
3.1368303571428573,1.159550257692216
3.170200892857143,1.1254568363088655
3.2035714285714283,0.9388974147566819
3.2369419642857142,0.6417735455894776
3.2703124999999997,0.3023617993776423
3.3036830357142857,-0.007032630283013054
3.337053571428571,-0.2316501731918046
3.370424107142857,-0.34777190587702717
3.4037946428571426,-0.36497067999978877
3.4371651785714286,-0.3183388650851874
3.470535714285714,-0.25474233806997343
3.50390625,-0.21788727703704047
3.5372767857142855,-0.23618587502073757
3.5706473214285714,-0.3160293870764499
3.604017857142857,-0.4417354314670938
3.637388392857143,-0.5820642205618042
3.6707589285714284,-0.7014376931899553
3.7041294642857143,-0.772024609844638
3.7375,-0.7817891737753893
3.7708705357142858,-0.7348120802844349
3.8042410714285713,-0.6439117892477465
3.837611607142857,-0.5200673534105398
3.8709821428571427,-0.36541397572559575
3.9043526785714286,-0.1746274481646083
3.937723214285714,0.05588614464738341
3.97109375,0.3169893316792818
4.004464285714286,0.5816643758052685
4.0378348214285715,0.8100294564932311
4.0712053571428575,0.9626539162341256
4.1045758928571425,1.0153653981149162
4.1379464285714285,0.9680617357945219
4.171316964285714,0.8436380540519314
4.2046875,0.6783758689104958
4.238058035714285,0.5088425932971558
4.271428571428571,0.3609006197716402
4.304799107142857,0.2443738872533707
4.338169642857142,0.15403096908087213
4.371540178571428,0.07535475290219437
4.404910714285714,-0.007408320079091875
4.43828125,-0.10351953496662215
4.471651785714285,-0.2106361689681211
4.505022321428571,-0.31406979318514583
4.538392857142857,-0.3912005416815624
4.571763392857143,-0.42024974947049354
4.605133928571428,-0.3906223577648877
4.638504464285714,-0.31046747546196635
4.671875,-0.2071796209420566
4.705245535714286,-0.11903407056879596
4.738616071428571,-0.08040412064512922
4.771986607142857,-0.10691467282623987
4.805357142857143,-0.1879080370043291
4.838727678571429,-0.29057174246968537
4.872098214285714,-0.3743099123840213
4.90546875,-0.40860631285778787
4.938839285714286,-0.38578811242277944
4.972209821428572,-0.3227518508042
5.005580357142857,-0.25127670032459093
5.038950892857143,-0.20199705163088325
5.072321428571429,-0.18977323178892205
5.105691964285715,-0.20708435824801213
5.1390625,-0.22804282282196572
5.172433035714286,-0.22074228153213796
5.2058035714285715,-0.16207658438699846
5.2391741071428575,-0.04833940267249379
5.2725446428571425,0.10294263974090605
5.3059151785714285,0.2604027286429214
5.339285714285714,0.391755723158181
5.3726562499999995,0.47624579717986176
5.406026785714285,0.511189133029684
5.439397321428571,0.5102299593156345
5.472767857142857,0.49483535012122226
5.506138392857142,0.48338559726469765
5.539508928571428,0.48278032645529306
5.572879464285714,0.4858776416883875
5.60625,0.47541832078104557
5.639620535714285,0.43260922127400353
5.672991071428571,0.34695180913962453
5.706361607142857,0.22335585146904444
5.739732142857143,0.08315050869752481
5.773102678571428,-0.04249884278746866
5.806473214285714,-0.12515130119870546
5.83984375,-0.15272304930230315
5.873214285714286,-0.13763631599910675
5.906584821428571,-0.11441325948458307
5.939955357142857,-0.12615499443297115
5.973325892857143,-0.20486966153107408
6.006696428571429,-0.3542631858573084
6.040066964285714,-0.5433038602063761
6.0734375,-0.7145360734613608
6.106808035714286,-0.8046891570160664
6.140178571428572,-0.7695433010171954
6.173549107142857,-0.6028046506086552
6.206919642857143,-0.34092315223107866
6.240290178571429,-0.05146876712266746
6.273660714285715,0.19054532338802493
6.30703125,0.3290440339093652
6.340401785714286,0.34560287310442855
6.3737723214285715,0.2634172104706064
6.407142857142857,0.13559089486733747
6.4405133928571425,0.02313509403885155
6.4738839285714285,-0.02805582786788156
6.507254464285714,-0.0021159044351310354
6.5406249999999995,0.08515467571970801
6.573995535714285,0.19712407950223187
6.607366071428571,0.29365687866712153
6.640736607142857,0.34693554098425416
6.674107142857142,0.34961076448282596
6.707477678571428,0.3134572382513659
6.740848214285714,0.2610316459936311
6.77421875,0.21502813082350036
6.807589285714285,0.1896139791715784
6.840959821428571,0.18607534411640822
6.874330357142857,0.19313253911290293
6.907700892857143,0.19111559327591177
6.941071428571428,0.15865184316797046
6.974441964285714,0.08008411699465233
7.0078125,-0.04857483275864339
7.041183035714286,-0.21724370445477412
7.074553571428571,-0.40393033078680995
7.107924107142857,-0.5806040481935832
7.141294642857143,-0.7203433571565051
7.174665178571429,-0.8029999841881056
7.208035714285714,-0.8177960153212892
7.24140625,-0.7631099548097995
7.274776785714286,-0.6449418846713014
7.308147321428572,-0.4754378365158565
7.341517857142857,-0.27173661027922713
7.374888392857143,-0.05437632868707708
7.408258928571429,0.15550660917482
7.441629464285715,0.339936470276859
7.475,0.4874248006028948
7.508370535714286,0.5942436482431201
7.5417410714285715,0.6630263814901053
7.575111607142857,0.6996574036715685
7.6084821428571425,0.7104174519145182
7.6418526785714285,0.7009750348048106
7.675223214285714,0.6772133186296003
7.7085937499999995,0.6461633501895266
7.741964285714285,0.6148675936180183
7.775334821428571,0.5864831973987672
7.808705357142857,0.5555701748119775
7.842075892857142,0.5063309632763145
7.875446428571428,0.4167795829874686
7.908816964285714,0.26836976077160274
7.9421875,0.056626387921844996
7.975558035714285,-0.2032451997524166
8.008928571428571,-0.4794364516945085
8.042299107142856,-0.7339596534926
8.075669642857143,-0.9347685797506335
8.109040178571428,-1.0632782104961898
8.142410714285715,-1.1143933896055054
8.17578125,-1.0911564824109699
8.209151785714285,-0.9992347491888487
8.242522321428572,-0.8456689111275014
8.275892857142857,-0.6423534763652585
8.309263392857142,-0.41051231401713933
8.342633928571429,-0.18099322402282697
8.376004464285714,0.012340069069530349
8.409375,0.1440410596484883
8.442745535714286,0.20736148454580702
8.47611607142857,0.21716515840770792
8.509486607142858,0.20306020978430572
8.542857142857143,0.19588418537816885
8.576227678571428,0.21453464040400289
8.609598214285715,0.2599267727154282
8.64296875,0.31871046508526396
8.676339285714285,0.37380164819804557
8.709709821428572,0.4151090605522538
8.743080357142857,0.4441861936933052
8.776450892857143,0.470546337658688
8.809821428571428,0.5025026170461709
8.843191964285714,0.538561563847727
8.8765625,0.5648785565801979
8.909933035714285,0.560592383297192
8.94330357142857,0.5082584255363559
8.976674107142857,0.40369334124068024
9.010044642857142,0.259831463219984
9.04341517857143,0.10237680595763848
9.076785714285714,-0.04069929947467215
9.11015625,-0.1506947506388627
9.143526785714286,-0.225254296092627
9.176897321428571,-0.2778015380663361
9.210267857142856,-0.3297612446958155
9.243638392857143,-0.3991441567097955
9.277008928571428,-0.4904411878648534
9.310379464285715,-0.5900802325727863
9.34375,-0.6694491852612132
9.377120535714285,-0.6946061963295038
9.410491071428572,-0.6392578420436762
9.443861607142857,-0.4962012051210405
9.477232142857142,-0.2827128771833664
9.510602678571429,-0.037384047585350084
9.543973214285714,0.19093239573041434
9.57734375,0.35827560013128634
9.610714285714286,0.43934231701638843
9.64408482142857,0.43490135891890347
9.677455357142858,0.37036417331763244
9.710825892857143,0.28622360708989614
9.744196428571428,0.22365958563732727
9.777566964285715,0.20985331867434473
9.8109375,0.24750902942005806
9.844308035714285,0.3121218051345005
9.877678571428572,0.35878704833150593
9.911049107142857,0.33771036364086476
9.944419642857143,0.2142552973836792
9.977790178571428,-0.013556411946393813
10.011160714285714,-0.3079181094719066
10.04453125,-0.5994622231022159
10.077901785714285,-0.8096748900467694
10.11127232142857,-0.8794312322044145
10.144642857142857,-0.7916039138642137
10.178013392857142,-0.5773684269508131
10.21138392857143,-0.30293793587282064
10.244754464285714,-0.042619196442227184
10.278125,0.14949489240437955
10.311495535714286,0.25660066800711284
10.344866071428571,0.2983424241498809
10.378236607142856,0.3142060888186081
10.411607142857143,0.34046095892419065
10.444977678571428,0.39207326800941944
10.478348214285715,0.45752155424824753
10.51171875,0.5075442902005946
10.545089285714285,0.51211571554086
10.578459821428572,0.45652903746604917
10.611830357142857,0.34871850820974165
10.645200892857142,0.2149234507187408
10.678571428571429,0.08678872807302711
10.711941964285714,-0.013033548670730463
10.745312499999999,-0.07956518113966891
10.778683035714286,-0.12462662858609933
10.81205357142857,-0.16746877030130347
10.845424107142858,-0.22194181473262858
10.878794642857143,-0.2865890660615895
10.912165178571428,-0.3425006874293189
10.945535714285715,-0.3602115705467346
10.97890625,-0.3129391664734149
11.012276785714285,-0.19062520779989006
11.045647321428572,-0.008678566771986388
11.079017857142857,0.1927318880055623
11.112388392857143,0.3592572010674082
11.145758928571428,0.4392571713162548
11.179129464285714,0.40088244007211093
11.2125,0.24319359654377082
11.245870535714285,-0.002464987436210225
11.27924107142857,-0.28102009491156243
11.312611607142857,-0.5290771856146317
11.345982142857142,-0.6922746587120657
11.37935267857143,-0.7395242011099934
11.412723214285714,-0.6702388446675979
11.44609375,-0.5126371095909523
11.479464285714286,-0.3136254684526086
11.512834821428571,-0.1232030269426272
11.546205357142856,0.021768241394032613
11.579575892857143,0.10893888686688087
11.612946428571428,0.15268055874484004
11.646316964285715,0.18583232404318487
11.6796875,0.24372493423705
11.713058035714285,0.3466956658073183
11.746428571428572,0.4884823747818794
11.779799107142857,0.6358401953370484
11.813169642857142,0.7400761228643629
11.846540178571429,0.7560044517022168
11.879910714285714,0.6605597006277435
11.913281249999999,0.4634900440524305
11.946651785714286,0.2059684377942599
11.98002232142857,-0.052137711771426135
12.013392857142858,-0.25139300305855267
12.046763392857143,-0.3513862690342766
12.080133928571428,-0.34246831441548364
12.113504464285715,-0.2469821486824527
12.146875,-0.11005682445048842
12.180245535714285,0.016374065366781706
12.213616071428572,0.09041936344197155
12.246986607142857,0.0920036651960895
12.280357142857143,0.02589816791941669
12.313727678571428,-0.08402123868090465
12.347098214285714,-0.20591019536963356
12.38046875,-0.3114157894120138
12.413839285714285,-0.383046998223957
12.44720982142857,-0.41555285113528756
12.480580357142857,-0.41243982440833404
12.513950892857142,-0.380826968998637
12.54732142857143,-0.32799505511261956
12.580691964285714,-0.26128168240440014
12.6140625,-0.19041155415121255
12.647433035714286,-0.12939469600400746
12.680803571428571,-0.09496890592793207
12.714174107142856,-0.10048797536490117
12.747544642857143,-0.14728060708570961
12.780915178571428,-0.21809180867190817
12.814285714285713,-0.2775349344563595
12.84765625,-0.28183368840842427
12.881026785714285,-0.19548508589750194
12.914397321428572,-0.008156876248325218
12.947767857142857,0.25634435165388975
12.981138392857142,0.5445805555324393
13.014508928571429,0.79113771796054
13.047879464285714,0.9426541687889121
13.081249999999999,0.977702900512414
13.114620535714286,0.9131760914608209
13.14799107142857,0.7937514470010232
13.181361607142858,0.6690568562267091
13.214732142857143,0.5693217713384242
13.248102678571428,0.4913669066942263
13.281473214285715,0.4020006506049336
13.31484375,0.25750694241912575
13.348214285714285,0.03001854544444649
13.381584821428572,-0.2719845745397653
13.414955357142857,-0.599317617290358
13.448325892857143,-0.876769356314527
13.481696428571428,-1.0309245983217519
13.515066964285714,-1.0191730898880442
13.5484375,-0.8474574631091395
13.581808035714285,-0.5695233901601308
13.61517857142857,-0.2686391047557648
13.648549107142857,-0.029860119735335956
13.681919642857142,0.08629280829153532
13.71529017857143,0.06005210606608916
13.748660714285714,-0.08501841337079176
13.78203125,-0.29157275117859643
13.815401785714286,-0.48580766878554954
13.848772321428571,-0.5976708100818814
13.882142857142856,-0.5795252744460339
13.915513392857143,-0.41921964189625593
13.948883928571428,-0.14393634334377406
13.982254464285713,0.18730078957708332
14.015625,0.5013457870302371
14.048995535714285,0.7336122303618866
14.082366071428572,0.8475147792556808
14.115736607142857,0.8428755368776776
14.149107142857142,0.7498028065631586
14.182477678571429,0.6110327953853316
14.215848214285714,0.461195123392714
14.249218749999999,0.3130068163177397
14.282589285714286,0.15700606850078758
14.31595982142857,-0.025403257476411298
14.349330357142858,-0.24277597721828265
14.382700892857143,-0.478959407224906
14.416071428571428,-0.6915427898911317
14.449441964285715,-0.8253221051078692
14.4828125,-0.8347426928491289
14.516183035714285,-0.7043869138019963
14.549553571428572,-0.457407183525309
14.582924107142857,-0.14789649422150228
14.616294642857143,0.15881395525238404
14.649665178571428,0.4083373855591983
14.683035714285714,0.5719188063107136
14.71640625,0.6483446476672139
14.749776785714285,0.6546911384947781
14.78314732142857,0.6127847538439447
14.816517857142857,0.5392027857331816
14.849888392857142,0.44318941193406886
14.88325892857143,0.33135542234694915
14.916629464285714,0.21385095770781323
14.95,0.1062895692372394
14.983370535714286,0.025128365848478842
15.016741071428571,-0.02084632721481377
15.050111607142856,-0.03707032659363402
15.083482142857143,-0.042593190970083204
15.116852678571428,-0.0612978798378561
15.150223214285713,-0.10906198977873117
15.18359375,-0.18388094046679107
15.216964285714285,-0.26487461487808744
15.250334821428572,-0.32157045916064453
15.283705357142857,-0.3293777647918582
15.317075892857142,-0.2836656182276412
15.350446428571429,-0.20515176826242845
15.383816964285714,-0.13326081141884305
15.417187499999999,-0.10979279788979496
15.450558035714286,-0.15996397463487047
15.48392857142857,-0.2794514605618119
15.517299107142858,-0.4337388720393345
15.550669642857143,-0.5707680136084368
15.584040178571428,-0.6419063468464546
15.617410714285715,-0.6222001614648388
15.65078125,-0.5207345169681312
15.684151785714285,-0.375952803076534
15.717522321428572,-0.23740439459110607
15.750892857142857,-0.14173609166914194
15.784263392857143,-0.09393921891734763
15.817633928571428,-0.0632456948732952
15.851004464285714,0.0030482088734841498
15.884375,0.15283409248141758
15.917745535714285,0.4013683183240724
15.95111607142857,0.7161205589370393
15.984486607142857,1.0232765465135278
16.017857142857142,1.2348741935979801
16.05122767857143,1.284898143309154
16.084598214285712,1.157161575839497
16.11796875,0.8911625803829432
16.151339285714286,0.5631797269844014
16.18470982142857,0.25276779996536164
16.218080357142856,0.012165707421461044
16.251450892857143,-0.14636268308804684
16.28482142857143,-0.24106148937513497
16.318191964285713,-0.297616268090986
16.3515625,-0.3281336974634843
16.384933035714287,-0.3252767252118587
16.41830357142857,-0.27425046897353184
16.451674107142857,-0.1735465949171859
16.485044642857144,-0.04947438410563586
16.518415178571427,0.04685224130492155
16.551785714285714,0.06052758271008775
16.58515625,-0.03904149437971282
16.618526785714284,-0.23875421783118145
16.65189732142857,-0.48257909405098465
16.685267857142858,-0.6930216829698997
16.71863839285714,-0.8029713173713844
16.752008928571428,-0.7826542602373426
16.785379464285715,-0.6495372290870342
16.81875,-0.45781831174059967
16.852120535714285,-0.27366374488896794
16.88549107142857,-0.14802457086630186
16.91886160714286,-0.09862797063974636
16.95223214285714,-0.10750151068503408
16.98560267857143,-0.13311237099886233
17.018973214285715,-0.13028109787570252
17.05234375,-0.06879917898946035
17.085714285714285,0.05642044335050832
17.119084821428572,0.2262254755322393
17.152455357142856,0.4068243658713141
17.185825892857142,0.5628078348567221
17.21919642857143,0.6681165814501874
17.252566964285712,0.7115364452522175
17.2859375,0.6961756223299697
17.319308035714286,0.6347098394278973
17.35267857142857,0.543248438852214
17.386049107142856,0.43643125802645405
17.419419642857143,0.32518611045015716
17.45279017857143,0.21702213272628934
17.486160714285713,0.11745495049119939
17.51953125,0.03076964346597139
17.552901785714287,-0.04089268364061336
17.58627232142857,-0.09958064590561061
17.619642857142857,-0.15285366433471925
17.653013392857144,-0.21247071677537227
17.686383928571427,-0.2899387439579309
