Frequency (Hz),Amplitude
0.0,0.6958176004878522
0.01993355481727575,0.717133650774592
0.0398671096345515,0.7775074501776541
0.059800664451827246,0.8686303653687992
0.079734219269103,0.9816788379640939
0.09966777408637874,1.1096030940806145
0.11960132890365449,1.2474147552975667
0.13953488372093023,1.391721745832118
0.159468438538206,1.540213837773814
0.17940199335548174,1.6912832311729156
0.19933554817275748,1.8437760868230095
0.21926910299003324,1.9968355726465206
0.23920265780730898,2.1498030240439503
0.25913621262458475,2.302155005502813
0.27906976744186046,2.453462543584414
0.29900332225913623,2.6033642117861886
0.318936877076412,2.7515480158759362
0.3388704318936877,2.8977389759789927
0.3588039867109635,3.0416904671514002
0.37873754152823924,3.1831780860386827
0.39867109634551495,3.3219952455330093
0.4186046511627907,3.4579499712206814
0.4385382059800665,3.5908625466269344
0.4584717607973422,3.720563766544106
0.47840531561461797,3.8468936317346025
0.49833887043189373,3.9697003678598795
0.5182724252491695,4.0888396851802415
0.5382059800664452,4.204174218806177
0.5581395348837209,4.315573105521875
0.5780730897009968,4.422911664696839
0.5980066445182725,4.526071159035466
0.6179401993355482,4.624938616879357
0.637873754152824,4.719406702143783
0.6578073089700996,4.809373621199415
0.6777408637873754,4.894743058420935
0.6976744186046512,4.975424133940853
0.717607973421927,5.051331378526825
0.7375415282392027,5.122384721558472
0.7574750830564785,5.188509488896768
0.7774086378737541,5.249636408074783
0.7973421926910299,5.305701618738032
0.8172757475083057,5.356646686656811
0.8372093023255814,5.40241861994777
0.8571428571428572,5.442969886394379
0.877076411960133,5.478258430961041
0.8970099667774087,5.508247692763142
0.9169435215946844,5.532906620894036
0.9368770764119602,5.552209688626284
0.9568106312292359,5.566136905602961
0.9767441860465116,5.574673827720269
0.9966777408637875,5.577811564477767
1.0166112956810631,5.5755467836402275
1.036544850498339,5.567881713117796
1.0564784053156147,5.554824140030886
1.0764119601328903,5.536387406984793
1.0963455149501662,5.51259040563837
1.1162790697674418,5.483457567713439
1.1362126245847177,5.449018853658446
1.1561461794019936,5.409309739253563
1.176079734219269,5.3643712005288045
1.196013289036545,5.314249697462661
1.2159468438538206,5.258997157042749
1.2358803986710964,5.198670956405228
1.255813953488372,5.133333906932877
1.275747508305648,5.063054240391134
1.2956810631229239,4.987905598426857
1.3156146179401993,4.907967027059476
1.3355481727574752,4.823322978176963
1.3554817275747508,4.734063320531805
1.3754152823920267,4.640283363347213
1.3953488372093024,4.542083896433196
1.4152823920265782,4.439571251732174
1.435215946843854,4.332857392544267
1.4551495016611296,4.222060038430568
1.4750830564784054,4.10730283611067
1.495016611295681,3.9887155897710933
1.514950166112957,3.8664345683885073
1.5348837209302328,3.7406029133821375
1.5548172757475083,3.611371177781142
1.5747508305647842,3.478898039063714
1.5946843853820598,3.343351243297162
1.6146179401993357,3.2049088603053644
1.6345514950166113,3.063760961570245
1.6544850498338872,2.9201118795168437
1.6744186046511629,2.774183276775097
1.6943521594684385,2.6262183598859408
1.7142857142857144,2.476487734860892
1.73421926910299,2.325297657126229
1.754152823920266,2.1730018349143836
1.7740863787375416,2.0200186043011836
1.7940199335548175,1.866856380116904
1.8139534883720931,1.7141520994257953
1.8338870431893688,1.5627304159775282
1.8538205980066447,1.413696457518154
1.8737541528239203,1.2685829756179359
1.893687707641196,1.1295837116657472
1.9136212624584719,0.9999127359902298
1.9335548172757475,0.8843043734213724
1.9534883720930232,0.789512174017628
1.9734219269102993,0.7241978009621839
1.993355481727575,0.696985837174401
2.0132890365448506,0.7123687566961708
2.0332225913621262,0.7677398123660863
2.0531561461794023,0.8551840157562471
2.073089700996678,0.9657453873883904
2.0930232558139537,1.0920682810530526
2.1129568106312293,1.228890289115887
2.132890365448505,1.372624067472195
2.1528239202657806,1.5208306385049566
2.1727574750830567,1.6718189240375572
2.1926910299003324,1.8243808744065384
2.212624584717608,1.9776237354312973
2.2325581395348837,2.1308644903906075
2.25249169435216,2.2835627797869598
2.2724252491694354,2.435277563223375
2.292358803986711,2.585638584483976
2.312292358803987,2.734327217884936
2.332225913621263,2.8810633711647258
2.352159468438538,3.025596373643254
2.3720930232558137,3.167698536054293
2.39202657807309,3.307160533559904
2.4119601328903655,3.4437880538964656
2.431893687707641,3.577399337187094
2.4518272425249172,3.7078233533193825
2.471760797342193,3.8348984412807967
2.4916943521594686,3.9584712872951684
2.511627906976744,4.078396154189233
2.5315614617940203,4.1945342989105345
2.551495016611296,4.306753532204936
2.5714285714285716,4.4149278865357795
2.5913621262458477,4.5189373669608095
2.611295681063123,4.618667765928146
2.6312292358803986,4.71401052751804
2.6511627906976742,4.804862650028583
2.6710963455149503,4.891126618317329
2.691029900332226,4.972710359202252
2.7109634551495017,5.049527214660977
2.7308970099667778,5.1214959286660395
2.7508305647840534,5.188540644341764
2.770764119601329,5.250590908787444
2.7906976744186047,5.3075816834286025
2.810631229235881,5.359453358165857
2.8305647840531565,5.40615176791607
2.850498338870432,5.44762821040123
2.870431893687708,5.483839464251542
2.8903654485049834,5.514747806661877
2.910299003322259,5.540321029983251
2.9302325581395348,5.560532456750168
2.950166112956811,5.575360952745659
2.9700996677740865,5.584790937792992
2.990033222591362,5.588812394039418
3.0099667774086383,5.587420871566162
3.029900332225914,5.580617491222055
3.0498338870431896,5.568408944638579
3.0697674418604657,5.550807491442484
3.089700996677741,5.527830953741901
3.1096345514950166,5.499502708023263
3.129568106312292,5.4658516746629555
3.1495016611295683,5.426912305330422
3.169435215946844,5.382724568641904
3.1893687707641196,5.3333339345189605
3.2093023255813957,5.278791357817035
3.2292358803986714,5.21915326192163
3.249169435215947,5.154481523169154
3.2691029900332227,5.084843457143605
3.289036544850499,5.010311808139293
3.3089700996677744,4.930964743376343
3.32890365448505,4.8468858539271915
3.3488372093023258,4.758164164780871
3.3687707641196014,4.6648941570677875
3.388704318936877,4.567175806231607
3.4086378737541527,4.4651146409213744
3.428571428571429,4.3588218286617675
3.4485049833887045,4.248414296045547
3.46843853820598,4.134014893425568
3.4883720930232562,4.0157526170665765
3.508305647840532,3.8937629057400507
3.5282392026578075,3.768188034224347
3.548172757475083,3.6391776337125292
3.5681063122923593,3.5068893796227694
3.588039867109635,3.371489902078422
3.60797342192691,3.2331559953830507
3.6279069767441863,3.092076233233238
3.647840531561462,2.948453140968578
3.6677740863787376,2.8025061424015574
3.6877076411960132,2.6544755988123865
3.7076411960132893,2.504628411288084
3.727574750830565,2.353265897473699
3.7475083056478407,2.2007350350969777
3.7674418604651168,2.0474447813331684
3.787375415282392,1.893890190978905
3.807308970099668,1.740688745878493
3.8272425249169437,1.5886361428562303
3.8471760797342194,1.438793510540095
3.867109634551495,1.2926255950394538
3.887043189368771,1.1522201754669328
3.9069767441860463,1.0206282915654117
3.9269102990033224,0.9023480899624232
3.9468438538205985,0.8038471353060773
3.9667774086378738,0.7336021265326891
3.98671096345515,0.7004834595683069
4.0066445182724255,0.7098497879444963
4.026578073089701,0.7601077535778125
4.046511627906977,0.8438201627851126
4.0664451827242525,0.9519345148755339
4.086378737541528,1.0767800857917955
4.106312292358805,1.2127979529573703
4.1262458471760795,1.3561855818567714
4.146179401993356,1.504361005319877
4.166112956810632,1.6555403210514676
4.186046511627907,1.8084549205436646
4.205980066445183,1.9621718345642243
4.225913621262459,2.115980708671022
4.245847176079734,2.2693221130878216
4.26578073089701,2.421741342815219
4.2857142857142865,2.5728580808297865
4.305647840531561,2.722346089528389
4.325581395348838,2.8699193592258982
4.345514950166113,3.0153224941650207
4.365448504983389,3.158323931994582
4.385382059800665,3.298711092128764
4.40531561461794,3.4362868595301355
4.425249169435216,3.570867007707764
4.445182724252492,3.702278291966853
4.465116279069767,3.8303570274294305
4.485049833887043,3.954948022007116
4.50498338870432,4.07590377219235
4.524916943521594,4.1930838554204914
4.544850498338871,4.306354470780997
4.5647840531561465,4.415588092570766
4.584717607973422,4.5206632102601345
4.604651162790698,4.621464134997794
4.624584717607974,4.717880857566107
4.644518272425249,4.809808946227313
4.664451827242526,4.897149475528754
4.6843853820598005,4.9798089791100155
4.704318936877076,5.0576994210516615
4.724252491694353,5.130738181449728
4.7441860465116275,5.198848052782128
4.764119601328904,5.261957244318239
4.78405315614618,5.319999392359329
4.803986710963455,5.372913574520754
4.823920265780731,5.420644326603272
4.8438538205980075,5.463141660870733
4.863787375415282,5.500361084769451
4.883720930232559,5.532263619302731
4.9036544850498345,5.558815816420772
4.92358803986711,5.579989774908772
4.943521594684386,5.5957631543597435
4.963455149501661,5.606119186907653
4.983388704318937,5.611046686474574
5.003322259136213,5.610540055355478
5.023255813953488,5.604599288028629
5.043189368770764,5.5932299721399215
5.063122923588041,5.576443286668979
5.083056478405315,5.554255997343893
5.102990033222592,5.526690449433243
5.122923588039868,5.493774558109784
5.142857142857143,5.4555417966524455
5.162790697674419,5.412031182834524
5.182724252491695,5.36328726393935
5.20265780730897,5.309360100953777
5.222591362126246,5.2503052526194836
5.242524916943522,5.1861837601780625
5.262458471760797,5.117062133835193
5.282392026578074,5.043012342202661
5.3023255813953485,4.964111806265506
5.322259136212625,4.880443399783093
5.342192691029901,4.792095458488222
5.362126245847176,4.699161801026832
5.382059800664452,4.6017417653214965
5.4019933554817285,4.499940264997486
5.421926910299003,4.393867871752706
5.44186046511628,4.283640931182488
5.4617940199335555,4.169381721724874
5.48172757475083,4.051218669267023
5.501661129568107,3.9292866338251833
5.5215946843853825,3.8037272899757255
5.541528239202658,3.674689629950288
5.561461794019934,3.542330628358943
5.5813953488372094,3.406816121632752
5.601328903654485,3.2683219753779884
5.621262458471762,3.1270356418133707
5.641196013289036,2.9831582518229767
5.661129568106313,2.8369074489993973
5.681063122923589,2.6885212677381918
5.700996677740864,2.538263502464714
5.72093023255814,2.38643124100462
5.740863787375416,2.2333655933049705
5.760797342192691,2.0794672246224244
5.780730897009967,1.925219250281739
5.800664451827243,1.7712216261073435
5.820598006644518,1.6182438136152366
5.840531561461795,1.467306916108422
5.8604651162790695,1.3198136229821196
5.880398671096346,1.1777546960047787
5.900332225913622,1.0440310540823046
5.920265780730897,0.9229206084422568
5.940199335548173,0.820615575231103
5.960132890365449,0.745390561176253
5.980066445182724,0.7063000261202005
6.0,0.709516453365666
6.0199335548172765,0.7545021004113911
6.039867109634551,0.8343876752814582
6.059800664451828,0.9400665239287485
6.0797342192691035,1.0635436853341895
6.099667774086379,1.1989380048440903
6.119601328903655,1.3422085615566983
6.139534883720931,1.4906137880173445
6.159468438538206,1.6422658732486657
6.179401993355482,1.7958283341637833
6.1993355481727574,1.9503230843054271
6.219269102990033,2.10500905541158
6.23920265780731,2.2593053442863646
6.259136212624584,2.4127418094828976
6.279069767441861,2.564926719830866
6.299003322259137,2.7155251563430887
6.318936877076412,2.8642443195270593
6.338870431893688,3.0108233561867137
6.3588039867109645,3.155026200310652
6.378737541528239,3.2966364606834513
6.398671096345516,3.4354537221970936
6.418604651162791,3.571290839271847
6.438538205980066,3.7039719358573104
6.458471760797343,3.8333309155399786
6.4784053156146175,3.959210344527751
6.498338870431894,4.081460610306096
6.51827242524917,4.199939286198872
6.538205980066445,4.314510651136219
6.558139534883721,4.425045327359516
6.578073089700998,4.531420008363207
6.598006644518272,4.633517256273713
6.617940199335549,4.7312253528945005
6.6378737541528245,4.824438192350802
6.6578073089701,4.913055206020542
6.677740863787376,4.996981312505668
6.6976744186046515,5.07612688696261
6.717607973421927,5.15040774530573
6.737541528239203,5.219745139717429
6.7574750830564785,5.284065762612604
6.777408637873754,5.343301756762834
6.797342192691031,5.397390729726447
6.8172757475083055,5.4462757710791125
6.837209302325582,5.489905471219996
6.857142857142858,5.528233940754405
6.877076411960133,5.561220829637812
6.897009966777409,5.588831345417926
6.9169435215946855,5.611036270037881
6.93687707641196,5.627811974770176
6.956810631229236,5.639140432942424
6.9767441860465125,5.64500923019611
6.996677740863787,5.6454115720904925
7.016611295681064,5.640346288929526
7.036544850498339,5.629817837750585
7.056478405315615,5.613836301473857
7.076411960132891,5.592417385270177
7.096345514950166,5.565582410267308
7.116279069767442,5.533358304779512
7.136212624584719,5.495777593317204
7.156146179401993,5.452878383713791
7.17607973421927,5.404704352798477
7.196013289036546,5.3513047311513064
7.21594684385382,5.292734287603864
7.235880398671097,5.229053314301598
7.2558139534883725,5.160327613328989
7.275747508305648,5.086628486126825
7.295681063122924,5.008032727211691
7.3156146179402,4.924622624060735
7.335548172757475,4.836485965466751
7.355481727574752,4.743716061231443
7.3754152823920265,4.646411776783286
7.395348837209303,4.5446775872329885
7.415282392026579,4.438623656582752
7.435215946843854,4.328365949381799
7.45514950166113,4.214026384202209
7.475083056478406,4.095733041082476
7.495016611295681,3.9736204388165026
7.514950166112956,3.847829903030741
7.5348837209302335,3.7185100529417148
7.554817275747508,3.5858174443251274
7.574750830564784,3.449917419751022
7.5946843853820605,3.31098523634734
7.614617940199336,3.1692075689903376
7.634551495016611,3.0247845271363776
7.6544850498338874,2.8779323831860437
7.674418604651163,2.7288872999819436
7.694352159468439,2.577910482109407
7.714285714285715,2.4252953886780713
7.73421926910299,2.2713779821174316
7.754152823920266,2.1165515296536266
7.774086378737542,1.9612883614314507
7.794019933554818,1.806172462766881
7.813953488372093,1.6519492481340214
7.83388704318937,1.4996029978102807
7.853820598006645,1.350479173159265
7.8737541528239205,1.206478870973691
7.893687707641197,1.0703637168634543
7.913621262458472,0.9462052753455973
7.9335548172757475,0.839931005073419
7.953488372093024,0.759601670908586
7.9734219269103,0.7144035909469285
7.9933554817275745,0.7112739174020293
8.013289036544851,0.7507714226957456
8.033222591362128,0.8266910103376791
8.053156146179402,0.9299202286598757
8.073089700996679,1.0521294577846343
8.093023255813954,1.1870848625258559
8.11295681063123,1.3304795576258506
8.132890365448505,1.479392733729368
8.152823920265782,1.6318196953822637
8.172757475083056,1.7863476252705486
8.192691029900331,1.9419477247816022
8.21262458471761,2.097844408826041
8.232558139534884,2.253432627415536
8.252491694352159,2.40822485389143
8.272425249169435,2.561816469056847
8.292358803986712,2.713862717112927
8.312292358803987,2.864063071913163
8.332225913621263,3.012150439522867
8.352159468438538,3.1578835773373193
8.372093023255815,3.301041691743097
8.392026578073091,3.4414205368685065
8.411960132890366,3.5788295643901273
8.43189368770764,3.7130898203388574
8.451827242524917,3.8440323801596707
8.471760797342194,3.9714971765352294
8.491694352159469,4.095332117124317
8.511627906976745,4.215392418535759
8.53156146179402,4.331540103091962
8.551495016611296,4.443643619156817
8.571428571428573,4.551577555919756
8.591362126245848,4.655222430810822
8.611295681063122,4.754464533021562
8.6312292358804,4.849195810503652
8.651162790697676,4.939313790711063
8.67109634551495,5.024721527520725
8.691029900332227,5.105327568406428
8.710963455149502,5.18104593719206
8.730897009966778,5.251796128671557
8.750830564784053,5.317503112128925
8.77076411960133,5.378097341373511
8.790697674418604,5.433514769364314
8.81063122923588,5.483696865860907
8.830564784053157,5.528590636829066
8.850498338870432,5.568148644564103
8.870431893687707,5.602329027685501
8.890365448504983,5.631095520313873
8.91029900332226,5.65441746987132
8.930232558139535,5.672269853056641
8.950166112956811,5.684633289640439
8.970099667774086,5.691494053807855
8.990033222591363,5.6928440828487386
9.00996677740864,5.688680983062215
9.029900332225914,5.679008032804433
9.049833887043189,5.663834182668465
9.069767441860467,5.643174052845593
9.089700996677742,5.617047927777898
9.109634551495017,5.585481748278331
9.129568106312293,5.548507101364465
9.14950166112957,5.506161208132356
9.169435215946844,5.458486910087059
9.189368770764121,5.405532654452082
9.209302325581396,5.34735247910493
9.22923588039867,5.284005997935112
9.249169435215949,5.215558387602568
9.269102990033224,5.142080376896722
9.289036544850498,5.0636482401708705
9.308970099667773,4.980343796669802
9.328903654485051,4.892254417999159
9.348837209302326,4.799473046531958
9.368770764119601,4.702098228245142
9.388704318936878,4.6002341643775635
9.408637873754152,4.493990787466438
9.428571428571429,4.383483868843961
9.448504983388705,4.268835166686775
9.46843853820598,4.150172626387347
9.488372093023255,4.027630648610336
9.508305647840533,3.901350445270259
9.528239202657808,3.771480510343047
9.548172757475083,3.6381772416684717
9.56810631229236,3.501605762848268
9.588039867109636,3.3619410127014775
9.60797342192691,3.21936919609887
9.627906976744187,3.0740897283745925
9.647840531561462,2.9263178621956882
9.667774086378738,2.7762882707858276
9.687707641196015,2.62425999098627
9.70764119601329,2.470523330526841
9.727574750830565,2.3154096607829175
9.747508305647841,2.159305525088711
9.767441860465118,2.002673323594276
9.787375415282392,1.8460822132940762
9.807308970099669,1.690255170153521
9.827242524916944,1.5361420303885294
9.84717607973422,1.3850346811487766
9.867109634551497,1.2387502558787973
9.887043189368772,1.0999197473845328
9.906976744186046,0.9724199925617546
9.926910299003321,0.861923659246575
9.9468438538206,0.7762704457376731
9.966777408637874,0.7247365388180086
9.986710963455149,0.7149817883872244
10.006644518272426,0.7487052431410499
10.026578073089702,0.8204703057281908
10.046511627906977,0.9212126941620016
10.066445182724253,1.0422543174933905
10.086378737541528,1.1769710953331154
10.106312292358805,1.3207565226096754
10.126245847176081,1.4704869046521896
10.146179401993356,1.6240252981037062
10.16611295681063,1.7798727126214162
10.186046511627907,1.9369432472411645
10.205980066445184,2.094422531932051
10.225913621262459,2.2516784177744076
10.245847176079735,2.408203871236495
10.26578073089701,2.563579798981072
10.285714285714286,2.717450375723093
10.305647840531563,2.8695063547818918
10.325581395348838,3.0194735727553685
10.345514950166113,3.1671048986210613
10.36544850498339,3.3121745092431274
10.385382059800666,3.4544737636917997
10.40531561461794,3.593808194349217
10.425249169435217,3.7299952899678814
10.445182724252492,3.8628628482112592
10.465116279069768,3.9922477429730328
10.485049833887045,4.117994997345047
10.50498338870432,4.239957084210409
10.524916943521594,4.3579933979706125
10.544850498338871,4.471969856018109
10.564784053156147,4.581758599291618
10.584717607973422,4.687237768958545
10.604651162790697,4.788291341868477
10.624584717607974,4.884809011532807
10.64451827242525,4.976686104433774
10.664451827242525,5.063823523747662
10.684385382059801,5.146127714289981
10.704318936877076,5.2235106438024745
10.724252491694353,5.295889796709969
10.74418604651163,5.363188177254931
10.764119601328904,5.42533431952652
10.784053156146179,5.482262302379346
10.803986710963457,5.5339117676164875
10.823920265780732,5.5802279401142725
10.843853820598007,5.621161648810227
