Time (s),Filtered Signal
0.0,0.023363813285135617
0.03337028824833703,-0.11218135134358538
0.06674057649667406,-0.24545705719874356
0.10011086474501109,-0.3767155451147285
0.13348115299334812,-0.5079961219882376
0.16685144124168516,-0.6386754361499399
0.20022172949002218,-0.7597727592203145
0.2335920177383592,-0.8511762658634476
0.26696230598669624,-0.8848359453311996
0.3003325942350333,-0.8337690511955198
0.3337028824833703,-0.6834062651567377
0.3670731707317073,-0.4402830240968845
0.40044345898004435,-0.13406983817385212
0.4338137472283814,0.18826360018777585
0.4671840354767184,0.4742211554313342
0.5005543237250555,0.6794504126108132
0.5339246119733925,0.7788548233493544
0.5672949002217295,0.7718630165850928
0.6006651884700666,0.6806749259193237
0.6340354767184035,0.5424987114364951
0.6674057649667406,0.3983797380211051
0.7007760532150776,0.28186621354691194
0.7341463414634146,0.21049774688671954
0.7675166297117517,0.18221258857960038
0.8008869179600887,0.17753590053444449
0.8342572062084257,0.16702278705589144
0.8676274944567628,0.1220176153057842
0.9009977827050998,0.02559451880603143
0.9343680709534368,-0.11998694998343683
0.9677383592017739,-0.29232775214797796
1.001108647450111,-0.4554395137331887
1.0344789356984478,-0.5719305905106079
1.067849223946785,-0.6164043690364005
1.101219512195122,-0.584718302724931
1.134589800443459,-0.49515652454807674
1.167960088691796,-0.3808945982929628
1.2013303769401331,-0.27692564340351106
1.23470066518847,-0.20704480561853136
1.268070953436807,-0.17631940217838565
1.3014412416851442,-0.17178418237700352
1.3348115299334813,-0.1702908926737647
1.3681818181818182,-0.14944522922122516
1.4015521064301553,-0.09676483378279356
1.4349223946784924,-0.013693792903570689
1.4682926829268292,0.08618491193747169
1.5016629711751663,0.18301777086495985
1.5350332594235034,0.25789004257288245
1.5684035476718403,0.2990124578305631
1.6017738359201774,0.30552222025079934
1.6351441241685145,0.2882971336699004
1.6685144124168514,0.2674436847432275
1.7018847006651885,0.26635698879400393
1.7352549889135256,0.30312970354201585
1.7686252771618625,0.38167545912300255
1.8019955654101996,0.4863406822288474
1.8353658536585367,0.5836391442703537
1.8687361419068735,0.6322874226590491
1.9021064301552106,0.5986760333598242
1.9354767184035477,0.4714277045171483
1.9688470066518848,0.2681064589376683
2.002217294900222,0.030327731265553284
2.035587583148559,-0.19095085117217653
2.0689578713968957,-0.353352412348382
2.102328159645233,-0.4362576161368137
2.13569844789357,-0.44408904703840646
2.1690687361419068,-0.399753164383779
2.202439024390244,-0.33283849733932164
2.235809312638581,-0.268723523020344
2.269179600886918,-0.2229256303390117
2.302549889135255,-0.2013446914299379
2.335920177383592,-0.2038275925134968
2.369290465631929,-0.22742601974543553
2.4026607538802662,-0.2671060299592612
2.436031042128603,-0.31431085656511565
2.46940133037694,-0.3558412760524026
2.5027716186252773,-0.3756265412274035
2.536141906873614,-0.3600103130163479
2.569512195121951,-0.3043990870769258
2.6028824833702884,-0.21735991186771791
2.6362527716186253,-0.11886196058729508
2.6696230598669626,-0.032302048630054404
2.7029933481152995,0.026311331961095336
2.7363636363636363,0.0563896728831143
2.7697339246119737,0.07324723330287164
2.8031042128603105,0.10009118655049917
2.8364745011086474,0.15531387937808847
2.8698447893569847,0.24174741761646817
2.9032150776053216,0.34372826493215186
2.9365853658536585,0.4336928890838532
2.969955654101996,0.48492515173223655
3.0033259423503327,0.4838728508441974
3.0366962305986696,0.4358288838816453
3.070066518847007,0.36135207987876666
3.1034368070953438,0.28554451954969357
3.1368070953436806,0.22576157307250888
3.170177383592018,0.1839147836471128
3.203547671840355,0.14712363330452402
3.2369179600886917,0.09632193887655009
3.270288248337029,0.018479649327965406
3.303658536585366,-0.083810335833674
3.337028824833703,-0.19055267529654396
3.37039911308204,-0.2718515500669906
3.403769401330377,-0.3015009552169063
3.437139689578714,-0.270126235039439
3.470509977827051,-0.19115871609703947
3.503880266075388,-0.0962364207692106
3.537250554323725,-0.021877959944647106
3.5706208425720622,0.006255946394181809
3.603991130820399,-0.016061147937266367
3.637361419068736,-0.0711387614754555
3.6707317073170733,-0.128822653020204
3.70410199556541,-0.1609324937000549
3.737472283813747,-0.153671913192533
3.7708425720620844,-0.1124980659159058
3.8042128603104213,-0.05793689520306755
3.8375831485587586,-0.01513982698441955
3.8709534368070955,-0.002511418942135341
3.9043237250554323,-0.024517776210382793
3.9376940133037697,-0.07126541595060623
3.9710643015521065,-0.1240909538912705
4.004434589800444,-0.16387531315163914
4.037804878048781,-0.17812960743540457
4.071175166297118,-0.1641282942080419
4.1045454545454545,-0.1276409243075979
4.137915742793791,-0.07889899402689912
4.171286031042128,-0.028318372960692943
4.204656319290466,0.016120895589003134
4.238026607538803,0.04951646404976434
4.27139689578714,0.06985195942453015
4.304767184035477,0.07847502285860082
4.3381374722838135,0.08171318553599353
4.371507760532151,0.09233293991746709
4.404878048780488,0.12835307287657233
4.438248337028825,0.2072501239664961
4.471618625277162,0.33604946221400955
4.504988913525499,0.5011036405008017
4.538359201773836,0.6635541452241732
4.571729490022173,0.7657081147422251
4.60509977827051,0.7492856413317602
4.638470066518847,0.5801634791371386
4.671840354767184,0.2690379533912011
4.705210643015521,-0.12321076666268885
4.738580931263858,-0.5011815853643424
4.771951219512196,-0.7675886159049831
4.8053215077605325,-0.8596215066470183
4.838691796008869,-0.7725538469438714
4.872062084257206,-0.5593651680842319
4.905432372505543,-0.3065509132688527
4.93880266075388,-0.09782892357682955
4.972172949002218,0.017152215837856893
5.005543237250555,0.03550734714042997
5.0389135254988915,-0.008234172352108429
5.072283813747228,-0.06597030764478247
5.105654101995565,-0.10080704745262421
5.139024390243902,-0.10082683004714313
5.17239467849224,-0.07734305545774757
5.205764966740577,-0.05173965502912687
5.239135254988914,-0.040058688314978025
5.2725055432372505,-0.04392747235017649
5.305875831485587,-0.05147045935327332
5.339246119733925,-0.04591605276943628
5.372616407982262,-0.01598300162234504
5.405986696230599,0.03773693530729579
5.439356984478936,0.10310781255005423
5.472727272727273,0.16236233256072044
5.5060975609756095,0.19998571329771192
5.539467849223947,0.20875656662915518
5.572838137472284,0.19174799095492634
5.606208425720621,0.16025434248726633
5.639578713968958,0.12914111018421556
5.672949002217295,0.11156008275329717
5.706319290465632,0.11461638746140927
5.7396895787139695,0.1369984043920819
5.773059866962306,0.16914025840687216
5.806430155210643,0.19610143866839816
5.83980044345898,0.2027223124051377
5.873170731707317,0.17965432374736107
5.906541019955654,0.12795105895401376
5.939911308203992,0.05976749930944679
5.9732815964523285,-0.006082883705715267
6.006651884700665,-0.05257423092145674
6.040022172949002,-0.07327169289578081
6.073392461197339,-0.07676636348027963
6.106762749445676,-0.08344936624852207
6.140133037694014,-0.11503114334719466
6.173503325942351,-0.18142662738488424
6.2068736141906875,-0.2719230639721413
6.240243902439024,-0.3562246284788008
6.273614190687361,-0.3962476387745048
6.306984478935698,-0.3637198228285474
6.340354767184036,-0.2549644071823641
6.373725055432373,-0.09504398222643984
6.40709534368071,0.07142499201186626
6.4404656319290465,0.198677402093936
6.473835920177383,0.25858373375789906
6.507206208425721,0.2508816527000233
6.540576496674058,0.20039943014405293
6.573946784922395,0.14330524828588778
6.607317073170732,0.10948612807574956
6.640687361419069,0.10943212539052458
6.674057649667406,0.13125596946150855
6.707427937915743,0.14844310588148785
6.74079822616408,0.13411803571437123
6.774168514412417,0.07504986505437648
6.807538802660754,-0.0209063353254554
6.840909090909091,-0.12718926597533226
6.874279379157428,-0.20968760552789373
6.9076496674057655,-0.24175856669843654
6.941019955654102,-0.21634165155056065
6.974390243902439,-0.1495043377019527
7.007760532150776,-0.07356900758126964
7.041130820399113,-0.022878246719917134
7.07450110864745,-0.0188583679033008
7.107871396895788,-0.06139501954289137
7.1412416851441245,-0.1303507510369779
7.174611973392461,-0.1959869426344186
7.207982261640798,-0.23278771442888374
7.241352549889135,-0.2298947455935521
7.274722838137472,-0.19353271773363467
7.30809312638581,-0.14109723370680227
7.341463414634147,-0.09069429723724937
7.3748337028824835,-0.05185589660277754
7.40820399113082,-0.022129570779006933
7.441574279379157,0.009067026452525146
7.474944567627494,0.05182236789953544
7.508314855875832,0.10740492365610535
7.541685144124169,0.16529793857994132
7.575055432372506,0.20800018349604926
7.6084257206208425,0.221848600148008
7.641796008869179,0.20843464619699664
7.675166297117517,0.1898881604342236
7.708536585365854,0.20337987337961977
7.741906873614191,0.28510997117230813
7.775277161862528,0.449761123809972
7.808647450110865,0.6750881386000532
7.842017738359202,0.9006889566411878
7.875388026607539,1.044563664448543
7.908758314855876,1.0327985469260572
7.942128603104213,0.8305066178197461
7.97549889135255,0.46002973722298757
8.008869179600888,-0.002819870180567074
8.042239467849225,-0.45388785881694604
8.075609756097561,-0.7966751606736416
8.108980044345898,-0.9739860627640806
8.142350332594235,-0.982847666111073
8.175720620842572,-0.8687096155757913
8.209090909090909,-0.7039752805449797
8.242461197339246,-0.5610793031371879
8.275831485587583,-0.4900281027089211
8.30920177383592,-0.5062211444998743
8.342572062084257,-0.5896184012540284
8.375942350332595,-0.6932742951126346
8.409312638580932,-0.7582711191086415
8.442682926829269,-0.731920020262667
8.476053215077606,-0.585446127436778
8.509423503325943,-0.3262185025451229
8.54279379157428,0.000652368851690359
8.576164079822616,0.3242066442794003
8.609534368070953,0.5708163052891133
8.64290465631929,0.6907105022165066
8.676274944567627,0.6768185566176974
8.709645232815964,0.5669778210220815
8.743015521064303,0.42751868925731445
8.77638580931264,0.3248654085930512
8.809756097560976,0.29763015565799417
8.843126385809313,0.3416376581693835
8.87649667405765,0.4143910276271785
8.909866962305987,0.4566277400156612
8.943237250554324,0.4210317650939016
8.97660753880266,0.29523272870206607
9.009977827050998,0.10904393538653914
9.043348115299334,-0.07696734212186523
9.076718403547671,-0.19627162731341927
9.110088691796008,-0.20359500957807422
9.143458980044347,-0.09301101808120305
9.176829268292684,0.10017154434769354
9.21019955654102,0.3135199783010201
9.243569844789358,0.48072418384489607
9.276940133037694,0.553964980961659
9.310310421286031,0.5168344048073861
9.343680709534368,0.38423794581592335
9.377050997782705,0.19169279982014947
9.410421286031042,-0.01949685099738245
9.443791574279379,-0.2143612330073987
9.477161862527716,-0.36995382673086263
9.510532150776053,-0.47520547030513444
9.543902439024391,-0.5283459625718784
9.577272727272728,-0.5350831158769879
9.610643015521065,-0.5081978856759131
9.644013303769402,-0.4666273275873665
9.677383592017739,-0.43158914330240505
9.710753880266076,-0.41932691147959184
9.744124168514412,-0.4331758669363992
9.77749445676275,-0.459539144646149
9.810864745011086,-0.4713924677104046
9.844235033259423,-0.439270293105426
9.87760532150776,-0.3453061245921691
9.910975609756099,-0.19347876771005487
9.944345898004435,-0.010480648165593708
9.977716186252772,0.16384494685394932
10.01108647450111,0.2922124740890062
10.044456762749446,0.3543502202699397
10.077827050997783,0.3536308282133046
10.11119733924612,0.31344096279297373
10.144567627494457,0.2658578188476907
10.177937915742794,0.23839674477206954
10.21130820399113,0.24462252175157495
10.244678492239467,0.28176562210287404
10.278048780487804,0.33490024583039596
10.311419068736143,0.3845791504317635
10.34478935698448,0.4141125237961544
10.378159645232817,0.4138306747533025
10.411529933481154,0.38174379989565954
10.44490022172949,0.3217989745910715
10.478270509977827,0.24156953490936225
10.511640798226164,0.15058897818582817
10.545011086474501,0.059328182006428316
10.578381374722838,-0.021999198416315858
10.611751662971175,-0.08541080657051323
10.645121951219512,-0.1274954052875283
10.67849223946785,-0.15076349509580605
10.711862527716187,-0.16268619495395456
10.745232815964524,-0.17228296124087586
10.778603104212861,-0.18573255974760522
10.811973392461198,-0.20340404724301805
10.845343680709535,-0.22019787463434978
10.878713968957872,-0.22930961746859593
10.912084257206208,-0.22745569090886072
10.945454545454545,-0.2184611018083129
10.978824833702882,-0.21268752771894192
11.012195121951219,-0.2219367116411257
11.045565410199556,-0.25212946770550315
11.078935698447895,-0.29774492265439256
11.112305986696231,-0.3416053933104928
11.145676274944568,-0.3610699339624197
11.179046563192905,-0.3382285742611142
11.212416851441242,-0.269139367994524
11.245787139689579,-0.16709099520311282
11.279157427937916,-0.05760687801622109
11.312527716186253,0.03285842098734407
11.34589800443459,0.08910162101120901
11.379268292682926,0.11404091598896769
11.412638580931263,0.12656814518954898
11.4460088691796,0.15120440554583622
11.479379157427939,0.20464926732546063
11.512749445676276,0.2861117137765822
11.546119733924613,0.3766275506417449
11.57949002217295,0.44812797970226775
11.612860310421286,0.47798840431717415
11.646230598669623,0.46171608687034094
11.67960088691796,0.4169860332963965
11.712971175166297,0.3762642921738114
11.746341463414634,0.37085607914893426
11.77971175166297,0.4136602904705217
11.813082039911308,0.48902293543477265
11.846452328159646,0.555254178966532
11.879822616407983,0.5598075366362582
11.91319290465632,0.4612567026504033
11.946563192904657,0.2486989482465366
11.979933481152994,-0.05018266815273628
12.01330376940133,-0.37646508466261025
12.046674057649668,-0.6600151444248639
12.080044345898004,-0.8438336020934899
12.113414634146341,-0.9026510394429257
12.146784922394678,-0.8487272834524066
12.180155210643015,-0.7237686132454101
12.213525498891352,-0.5816408501989055
12.24689578713969,-0.46946270888822994
12.280266075388028,-0.41389293666163157
12.313636363636364,-0.4160882516035473
12.347006651884701,-0.4549856362555319
12.380376940133038,-0.49602692071755045
12.413747228381375,-0.5018301479974517
12.447117516629712,-0.4420912076521414
12.480487804878049,-0.3011360555427843
12.513858093126386,-0.08229760174891333
12.547228381374723,0.19142151903030988
12.58059866962306,0.48075991116775096
12.613968957871396,0.7376047752473086
12.647339246119735,0.915494935170541
12.680709534368072,0.9812310658336759
12.714079822616409,0.924604677776369
12.747450110864746,0.762905291392208
12.780820399113082,0.5377380549104317
12.81419068736142,0.3039636858631381
12.847560975609756,0.11365615010123993
12.880931263858093,0.0004958225022825293
12.91430155210643,-0.02951683582674494
12.947671840354767,0.002618474090480327
12.981042128603104,0.059064838124480074
13.014412416851442,0.10029284770810469
13.04778270509978,0.0988539994067046
13.081152993348116,0.04663678614726694
13.114523281596453,-0.046058791061749524
13.14789356984479,-0.15749608073755073
13.181263858093127,-0.2632582090986058
13.214634146341464,-0.34292081911525824
13.2480044345898,-0.38306594254675613
13.281374722838137,-0.3775580835937749
13.314745011086474,-0.32711116468692375
13.348115299334811,-0.23941106216404776
13.381485587583148,-0.12930654612389336
13.414855875831487,-0.017398244319567803
13.448226164079824,0.07418967146477924
13.48159645232816,0.12819138617112333
13.514966740576497,0.13811244154437063
13.548337028824834,0.1105038337047078
13.581707317073171,0.06186724512884705
13.615077605321508,0.011168667159971625
13.648447893569845,-0.0286228052648891
13.681818181818182,-0.05579814617897814
13.715188470066519,-0.07922814424301956
13.748558758314855,-0.11192912197868236
13.781929046563192,-0.1620200822146585
13.815299334811531,-0.22567903270017028
13.848669623059868,-0.28590483965554375
13.882039911308205,-0.3181712730806544
13.915410199556542,-0.30070270854987213
13.948780487804878,-0.22472092543688313
13.982150776053215,-0.09980788429948835
14.015521064301552,0.048314043055762645
14.048891352549889,0.18675693539595528
14.082261640798226,0.2872177115215645
14.115631929046563,0.3353446518986185
14.1490022172949,0.3339092447391211
14.182372505543238,0.2990456908731227
14.215742793791575,0.2519550167831108
14.249113082039912,0.21012927319971142
14.282483370288249,0.18173918919446544
14.315853658536586,0.16487114140093634
14.349223946784923,0.1509743108915338
14.38259423503326,0.1302928422537849
14.415964523281596,0.09672459306107713
14.449334811529933,0.05030519258738
14.48270509977827,-0.0032045565360107535
14.516075388026607,-0.05495644643417724
14.549445676274944,-0.09650332045839186
14.582815964523283,-0.12268669833035489
14.61618625277162,-0.1329298161738463
14.649556541019956,-0.13069055784844874
14.682926829268293,-0.12155701923996863
14.71629711751663,-0.11090887079876167
14.749667405764967,-0.10209598307556503
14.783037694013304,-0.09575583353094957
14.81640798226164,-0.09038047471321552
14.849778270509978,-0.08375384041350885
14.883148558758315,-0.07456062663716206
14.916518847006651,-0.06339799886218515
14.949889135254988,-0.05262778151064523
14.983259423503327,-0.04497151901864701
15.016629711751664,-0.04137626976144245
15.05,-0.03924049669533833
15.083370288248338,-0.032259014628722577
15.116740576496674,-0.012648887750448309
15.150110864745011,0.024632475421624198
15.183481152993348,0.07742458327969845
15.216851441241685,0.13420432302380622
15.250221729490022,0.1763194245043786
15.283592017738359,0.18484225571329416
15.316962305986696,0.14969425475501588
15.350332594235034,0.07674676865916602
15.383702882483371,-0.011367771760456148
15.417073170731708,-0.08252040028286714
15.450443458980045,-0.10819173159424873
15.483813747228382,-0.07668323328237228
15.517184035476719,0.0001461923129651054
15.550554323725056,0.09051399494951039
15.583924611973393,0.1555609386224932
15.61729490022173,0.16552560191612317
15.650665188470066,0.11162393810266719
15.684035476718403,0.00827643476849869
15.71740576496674,-0.11467524714103242
15.750776053215079,-0.22516658914409424
15.784146341463416,-0.3006798474607192
15.817516629711752,-0.333241372174836
15.85088691796009,-0.326475947793018
15.884257206208426,-0.2879308147744425
15.917627494456763,-0.22208167874762452
15.9509977827051,-0.12842094239538818
15.984368070953437,-0.005584730227204209
16.017738359201775,0.14136623190274128
16.05110864745011,0.2955036858808863
16.08447893569845,0.42866822070361005
16.117849223946784,0.5092251674562703
16.151219512195123,0.5140044205795387
16.184589800443458,0.4388332522629469
16.217960088691797,0.30221401899297484
16.251330376940132,0.13972484213665226
16.28470066518847,-0.008811090472078294
16.31807095343681,-0.11373375614065646
16.351441241685144,-0.16506710865337737
16.384811529933483,-0.1731358522569885
16.418181818181818,-0.1606585256251471
16.451552106430157,-0.15070199545495305
16.48492239467849,-0.15645548377693297
16.51829268292683,-0.17728988267573517
16.551662971175165,-0.2020319119277774
16.585033259423504,-0.21679520740300623
16.61840354767184,-0.2128819040606841
16.651773835920178,-0.190893541165564
16.685144124168513,-0.1596229897162241
16.71851441241685,-0.13105956175571545
16.75188470066519,-0.11448492779875759
16.785254988913525,-0.11250911728247245
16.818625277161864,-0.12037592343643311
16.8519955654102,-0.1280424953806674
16.885365853658538,-0.12348144905872467
16.918736141906873,-0.09577310971640761
16.95210643015521,-0.03743308448630381
16.985476718403547,0.053779639928033786
17.018847006651885,0.17322387390483643
17.05221729490022,0.3081468616019789
17.08558758314856,0.4378446932793787
17.118957871396898,0.5363987620370704
17.152328159645233,0.5784599070618153
17.18569844789357,0.5470703712382785
17.219068736141907,0.4409479673280841
