Frequency (Hz),Amplitude
0.0,0.181699838923143
0.019801980198019802,0.18160637828683274
0.039603960396039604,0.1813261107723454
0.0594059405940594,0.18085937960224385
0.07920792079207921,0.1802067569484749
0.09900990099009901,0.17936904414616558
0.1188118811881188,0.178347272017896
0.13861386138613863,0.17714270133462723
0.15841584158415842,0.17575682344823265
0.1782178217821782,0.1741913611409805
0.19801980198019803,0.17244826974936203
0.21782178217821782,0.17052973863368276
0.2376237623762376,0.16843819308194713
0.25742574257425743,0.16617629675727869
0.27722772277227725,0.16374695482348162
0.297029702970297,0.1611533179145325
0.31683168316831684,0.15839878715336972
0.33663366336633666,0.15548702047388763
0.3564356435643564,0.15242194056275232
0.37623762376237624,0.14920774481608076
0.39603960396039606,0.14584891780787157
0.4158415841584158,0.14235024689706122
0.43564356435643564,0.1387168417694707
0.45544554455445546,0.1349541589321587
0.4752475247524752,0.13106803246763404
0.495049504950495,0.12706471273958714
0.5148514851485149,0.12295091525291035
0.5346534653465347,0.11873388255470402
0.5544554455445545,0.11442146298449792
0.5742574257425742,0.11002221132925794
0.594059405940594,0.10554551813407421
0.613861386138614,0.1010017767309167
0.6336633663366337,0.09640260019997966
0.6534653465346534,0.09176110476336911
0.6732673267326733,0.08709228188395098
0.6930693069306931,0.08241348897298893
0.7128712871287128,0.07774509832775249
0.7326732673267327,0.07311135540450908
0.7524752475247525,0.06854150893817551
0.7722772277227723,0.06407128124007745
0.7920792079207921,0.05974473369949352
0.8118811881188118,0.055616520581609395
0.8316831683168316,0.051754356759356815
0.8514851485148516,0.04824116106847009
0.8712871287128713,0.045175683627641364
0.891089108910891,0.04266954167315813
0.9108910891089109,0.040838043265080885
0.9306930693069307,0.039783361951982815
0.9504950495049505,0.039572895333464794
0.9702970297029703,0.04022139576389952
0.99009900990099,0.04168671335738678
1.00990099009901,0.043881784189071
1.0297029702970297,0.046695701311512704
1.0495049504950495,0.0500136707042715
1.0693069306930694,0.053730025120236155
1.0891089108910892,0.057753990059556844
1.108910891089109,0.06201055212425677
1.1287128712871286,0.06643888447657532
1.1485148514851484,0.07098995086482955
1.1683168316831685,0.0756241138727189
1.188118811881188,0.0803090728783828
1.2079207920792079,0.08501820475079824
1.227722772277228,0.0897292748305106
1.2475247524752475,0.09442345312767238
1.2673267326732673,0.09908456928406639
1.2871287128712872,0.10369854943516009
1.3069306930693068,0.10825298988733384
1.3267326732673268,0.11273683319141244
1.3465346534653466,0.1171401208326663
1.3663366336633662,0.12145380339896675
1.3861386138613863,0.125669594058662
1.405940594059406,0.1297798548498009
1.4257425742574257,0.1337775079759266
1.4455445544554455,0.13765596627965182
1.4653465346534653,0.14140907851568985
1.4851485148514851,0.1450310861148731
1.504950495049505,0.14851658892273847
1.5247524752475248,0.15186051798619285
1.5445544554455446,0.15505811390367621
1.5643564356435644,0.1581049095877268
1.5841584158415842,0.16099671654103206
1.6039603960396038,0.16372961394064484
1.6237623762376237,0.16629993997303216
1.6435643564356437,0.16870428497724607
1.6633663366336633,0.17093948604306164
1.683168316831683,0.17300262278065923
1.7029702970297032,0.17489101403353477
1.7227722772277227,0.17660221535023862
1.7425742574257426,0.1781340170654464
1.7623762376237624,0.17948444286900017
1.782178217821782,0.18065174876455017
1.801980198019802,0.18163442233797053
1.8217821782178218,0.18243118227153152
1.8415841584158414,0.18304097805257968
1.8613861386138615,0.18346298983664003
1.881188118811881,0.1836966284346096
1.900990099009901,0.18374153540209476
1.920792079207921,0.18359758321667177
1.9405940594059405,0.18326487553641443
1.9603960396039604,0.18274374753969805
1.98019801980198,0.18203476635366497
2.0,0.181138731585942
2.01980198019802,0.18005667598195554
2.0396039603960396,0.17878986623907375
2.0594059405940595,0.17733980401829175
2.0792079207920793,0.17570822720567444
2.099009900990099,0.17389711148890663
2.118811881188119,0.17190867233023088
2.1386138613861387,0.16974536743608776
2.1584158415841586,0.1674098998470622
2.1782178217821784,0.16490522180078004
2.1980198019801978,0.16223453955565556
2.217821782178218,0.15940131940840244
2.237623762376238,0.1564092951943026
2.257425742574257,0.15326247763055426
2.2772277227722775,0.14996516595398884
2.297029702970297,0.14652196242132298
2.3168316831683167,0.14293779039109497
2.336633663366337,0.13921791690279897
2.3564356435643563,0.135367980925738
2.376237623762376,0.13139402878889533
2.3960396039603964,0.1273025587516773
2.4158415841584158,0.1231005772741116
2.4356435643564356,0.11879567034828244
2.455445544554456,0.11439609433574394
2.4752475247524752,0.10991089222392002
2.495049504950495,0.10535004321056572
2.514851485148515,0.10072465624429178
2.5346534653465347,0.09604722184736458
2.5544554455445545,0.09133194154719841
2.5742574257425743,0.08659516091152493
2.594059405940594,0.08185594083839023
2.6138613861386135,0.07713681240762599
2.633663366336634,0.07246477232333066
2.6534653465346536,0.0678725854427235
2.673267326732673,0.06340045932440734
2.6930693069306932,0.05909812302666158
2.712871287128713,0.05502723737656772
2.7326732673267324,0.051263813609182134
2.7524752475247527,0.047899822596227604
2.7722772277227725,0.04504238996345009
2.792079207920792,0.04280814217242049
2.811881188118812,0.04131034167496284
2.8316831683168315,0.0406390102482043
2.8514851485148514,0.040839662445323346
2.8712871287128716,0.041900734582796
2.891089108910891,0.04375709876582562
2.910891089108911,0.04630747554095713
2.9306930693069306,0.04943613058628649
2.9504950495049505,0.05303010910451795
2.9702970297029703,0.05698888285402849
2.99009900990099,0.061227666889605604
3.00990099009901,0.06567699179205896
3.0297029702970297,0.0702806438203938
3.0495049504950495,0.07499321266581885
3.0693069306930694,0.07977782059314067
3.089108910891089,0.08460422809649502
3.108910891089109,0.08944733336489365
3.128712871287129,0.09428601493994669
3.148514851485148,0.09910225060489054
3.1683168316831685,0.10388044998674094
3.1881188118811883,0.10860694923092051
3.2079207920792077,0.11326962745878583
3.227722772277228,0.11785761447161226
3.2475247524752473,0.12236106688782263
3.267326732673267,0.12677099577565465
3.2871287128712874,0.1310791332208756
3.3069306930693068,0.1352778284982806
3.3267326732673266,0.1393599668880542
3.346534653465347,0.14331890592159655
3.366336633663366,0.1471484251250627
3.386138613861386,0.1508426862787022
3.4059405940594063,0.15439620191542214
3.4257425742574257,0.15780381030958718
3.4455445544554455,0.1610606556033888
3.4653465346534653,0.16416217201825428
3.485148514851485,0.16710407132698446
3.504950495049505,0.1698823329374052
3.5247524752475248,0.17249319607318464
3.5445544554455446,0.1749331536421624
3.564356435643564,0.1771989474642988
3.5841584158415842,0.17928756459571077
3.603960396039604,0.18119623453588
3.6237623762376234,0.18292242714591647
3.6435643564356437,0.18446385113799
3.6633663366336635,0.18581845302248523
3.683168316831683,0.1869844164207344
3.702970297029703,0.18796016166898885
3.722772277227723,0.18874434565379142
3.7425742574257423,0.1893358618315394
3.762376237623762,0.1897338403955866
3.7821782178217824,0.18993764856360956
3.801980198019802,0.18994689096640355
3.8217821782178216,0.1897614101270095
3.841584158415842,0.1893812870264463
3.8613861386138613,0.1888068417596633
3.881188118811881,0.18803863429264195
3.9009900990099013,0.18707746533946382
3.9207920792079207,0.18592437738660642
3.9405940594059405,0.18458065590121725
3.96039603960396,0.18304783077080786
3.98019801980198,0.1813276780345851
4.0,0.17942222198131813
4.01980198019802,0.17733373770664043
4.03960396039604,0.1750647542442616
4.0594059405940595,0.17261805841220948
4.079207920792079,0.1699966995478445
4.099009900990099,0.1672039953463803
4.118811881188119,0.16424353906861214
4.138613861386139,0.16111920844825622
4.158415841584159,0.15783517671109185
4.178217821782178,0.15439592622304038
4.198019801980198,0.15080626541881678
4.217821782178218,0.1470713498372911
4.237623762376238,0.1431967083165406
4.257425742574258,0.13918827569913458
4.2772277227722775,0.13505243379017975
4.297029702970297,0.1307960628310547
4.316831683168317,0.1264266064455298
4.336633663366336,0.12195215394648602
4.356435643564357,0.1173815451464903
4.376237623762377,0.11272450451496742
4.3960396039603955,0.10799181382963333
4.415841584158416,0.10319553559770864
4.435643564356436,0.09834930375040637
4.455445544554455,0.09346870377567659
4.475247524752476,0.08857177188775989
4.4950495049504955,0.0836796522316313
4.514851485148514,0.0788174621423023
4.534653465346535,0.07401542633697519
4.554455445544555,0.06931034640928714
4.574257425742574,0.064747459542414
4.594059405940594,0.06038268288182465
4.613861386138614,0.056285085674698566
4.633663366336633,0.052539097009509345
4.653465346534653,0.049245354189279035
4.673267326732674,0.046518259595326766
4.693069306930693,0.04447770891477628
4.712871287128713,0.04323329759142998
4.732673267326733,0.04286299009783295
4.752475247524752,0.04339382447234033
4.772277227722772,0.04479457685281081
4.792079207920793,0.04698473400777901
4.811881188118812,0.049854426543720125
4.8316831683168315,0.05328532466260976
4.851485148514852,0.05716554584073214
4.871287128712871,0.061397157841390604
4.891089108910891,0.06589817089377202
4.910891089108912,0.07060150968360797
4.930693069306931,0.07545278589460451
4.9504950495049505,0.08040787769588256
4.97029702970297,0.08543075761718731
4.99009900990099,0.09049170337254903
5.00990099009901,0.09556588695360403
5.02970297029703,0.10063228682000554
5.0495049504950495,0.1056728582417754
5.069306930693069,0.11067190303571976
5.089108910891089,0.11561559069647676
5.108910891089109,0.12049159359536095
5.128712871287129,0.12528880794403918
5.148514851485149,0.12999713933004778
5.1683168316831685,0.13460733703766836
5.188118811881188,0.13911086540334208
5.207920792079208,0.14349980344084734
5.227722772277227,0.14776676617330287
5.247524752475248,0.1519048427334108
5.267326732673268,0.15590754749448457
5.2871287128712865,0.1597687813866368
5.306930693069307,0.16348280121794992
5.326732673267327,0.16704419531956188
5.346534653465346,0.17044786421042393
5.366336633663367,0.17368900526350456
5.3861386138613865,0.17676310057359754
5.405940594059405,0.17966590739513566
5.425742574257426,0.18239345064803644
5.445544554455446,0.18494201709099242
5.465346534653465,0.1873081508407742
5.485148514851486,0.18948864997847656
5.504950495049505,0.19148056403343722
5.524752475247524,0.1932811921748563
5.544554455445545,0.19488808197333407
5.564356435643565,0.1962990286201418
5.584158415841584,0.1975120745134052
5.603960396039604,0.19852550913781486
5.623762376237624,0.19933786917909088
5.643564356435643,0.19994793882710632
5.663366336633663,0.20035475023210406
5.683168316831684,0.20055758408816485
5.702970297029703,0.20055597032676956
5.7227722772277225,0.20034968891109894
5.742574257425743,0.1999387707299411
5.762376237623762,0.1993234985973087
5.782178217821782,0.1985044083723711
5.801980198019803,0.19748229022239763
5.821782178217822,0.1962581900609926
5.841584158415841,0.1948334112042411
5.861386138613861,0.19320951629952646
5.881188118811881,0.1913883295957958
5.900990099009901,0.18937193964081442
5.920792079207921,0.1871627025111443
5.9405940594059405,0.18476324570495772
5.96039603960396,0.18217647285789582
5.98019801980198,0.17940556947930064
6.0,0.17645400995236057
6.01980198019802,0.1733255660996832
6.03960396039604,0.17002431768905202
6.0594059405940595,0.16655466534693564
6.079207920792079,0.16292134646613335
6.099009900990099,0.1591294548465192
6.118811881188119,0.15518446500527439
6.138613861386139,0.15109226234973053
6.158415841584159,0.14685918074225307
6.178217821782178,0.14249204942905622
6.198019801980198,0.13799825189109743
6.217821782178218,0.1333857999554385
6.237623762376237,0.12866342754960672
6.257425742574258,0.12384070988419915
6.2772277227722775,0.11892821573902577
6.297029702970296,0.11393770307734442
6.316831683168317,0.1088823716453823
6.336633663366337,0.10377719080635182
6.356435643564356,0.09863932691853738
6.376237623762377,0.09348870235524855
6.396039603960396,0.08834872777913867
6.415841584158415,0.08324725974836698
6.435643564356436,0.07821784446694087
6.455445544554456,0.07330130857324248
6.475247524752475,0.06854773367028112
6.495049504950495,0.06401877113764219
6.514851485148515,0.059790060924418964
6.534653465346534,0.055953130905387595
6.554455445544554,0.0526155093228308
6.574257425742575,0.04989699573038351
6.594059405940594,0.04791970519611708
6.6138613861386135,0.04679087960224683
6.633663366336634,0.04658154038659788
6.653465346534653,0.0473091218277033
6.673267326732673,0.04893308090045165
6.693069306930694,0.051365995370545973
6.712871287128713,0.05449385569969049
6.732673267326732,0.05819611042523939
6.752475247524753,0.062359540002480805
6.772277227722772,0.06688509055905915
6.792079207920792,0.07168959045873824
6.811881188118813,0.07670467831074586
6.8316831683168315,0.0818746206805966
6.851485148514851,0.0871539503213827
6.871287128712871,0.09250533880070179
6.891089108910891,0.09789783366801992
6.910891089108911,0.10330545914220815
6.930693069306931,0.10870613016623347
6.9504950495049505,0.11408081900861002
6.97029702970297,0.11941291848927432
6.99009900990099,0.12468775559018831
7.00990099009901,0.12989221912907306
7.02970297029703,0.13501447371557482
7.0495049504950495,0.14004373902841324
7.069306930693069,0.14497011869262044
7.089108910891089,0.14978446698334474
7.108910891089109,0.1544782845256689
7.128712871287128,0.15904363634515947
7.148514851485149,0.1634730872458111
7.1683168316831685,0.16775965069770934
7.188118811881187,0.17189674831680887
7.207920792079208,0.17587817769342834
7.227722772277228,0.17969808683423466
7.247524752475247,0.18335095386720165
7.267326732673268,0.18683157095240333
7.287128712871287,0.19013503156617217
7.306930693069306,0.19325672049938025
7.326732673267327,0.19619230604516733
7.346534653465347,0.19893773395619824
7.366336633663366,0.20148922283406503
7.3861386138613865,0.20384326067843897
7.405940594059406,0.2059966023755127
7.425742574257425,0.20794626794652693
7.445544554455446,0.2096895414109659
7.465346534653466,0.2112239701458407
7.485148514851485,0.21254736464516044
7.504950495049505,0.21365779860201467
7.524752475247524,0.21455360925131792
7.544554455445544,0.21523339792460425
7.564356435643565,0.2156960307797033
7.584158415841584,0.2159406396785019
7.603960396039604,0.21596662319522458
7.623762376237624,0.2157736477464504
7.643564356435643,0.21536164884269618
7.663366336633663,0.21473083246971597
7.683168316831684,0.21388167661661192
7.702970297029703,0.21281493297723778
7.7227722772277225,0.21153162886167695
7.742574257425743,0.21003306936643393
7.762376237623762,0.2083208398650298
7.782178217821782,0.20639680889700923
7.801980198019803,0.20426313155141976
7.821782178217822,0.20192225346387757
7.841584158415841,0.1993769155732722
7.861386138613862,0.1966301598178707
7.881188118811881,0.19368533599176527
7.900990099009901,0.19054611003424862
7.92079207920792,0.1872164740888357
7.9405940594059405,0.18370075874995007
7.96039603960396,0.18000364801795837
7.980198019801979,0.17613019761422805
8.0,0.1720858574758926
8.01980198019802,0.16787649946649913
8.03960396039604,0.1635084516196487
8.05940594059406,0.1589885405989738
8.07920792079208,0.1543241445381441
8.099009900990099,0.14952325905770705
8.118811881188119,0.14459458009397075
8.138613861386139,0.13954760829034749
8.158415841584159,0.13439278118931072
8.178217821782178,0.12914164145123677
8.198019801980198,0.12380705198241136
8.217821782178218,0.11840347238814707
8.237623762376238,0.11294731582501794
8.257425742574258,0.10745741135603018
8.277227722772277,0.10195560445659911
8.297029702970297,0.09646753716276688
8.316831683168317,0.09102365834981027
8.336633663366337,0.08566052050631345
8.356435643564357,0.0804224143620826
8.376237623762377,0.07536336034533644
8.396039603960396,0.07054938437973138
8.415841584158416,0.06606080164573142
8.435643564356436,0.06199384567728555
8.455445544554456,0.058460373833258514
8.475247524752476,0.055583697195047646
8.495049504950495,0.05348840458602149
8.514851485148515,0.05228347179914824
8.534653465346535,0.05204170481405851
8.554455445544555,0.052783020079069515
8.574257425742575,0.0544697678016884
8.594059405940595,0.05701662857836606
8.613861386138613,0.060309709673002955
8.633663366336634,0.06422621040422571
8.653465346534654,0.06864875165023135
8.673267326732672,0.07347302872984678
8.693069306930694,0.07861028462523388
8.712871287128714,0.08398675327016479
8.732673267326732,0.0895417523512109
8.752475247524753,0.09522542518023908
8.772277227722773,0.10099661613563289
8.792079207920791,0.10682106078149467
8.811881188118813,0.11266992057145633
8.831683168316832,0.11851862855082551
8.85148514851485,0.12434599301256544
8.871287128712872,0.1301335060959964
8.891089108910892,0.13586481153456426
8.91089108910891,0.14152529455948618
8.930693069306932,0.14710176509677866
8.950495049504951,0.15258221215110526
8.97029702970297,0.1579556126006306
8.990099009900991,0.1632117817193783
9.00990099009901,0.16834125583942003
9.029702970297029,0.17333519989057328
9.04950495049505,0.17818533429704492
9.06930693069307,0.182883877015874
9.089108910891088,0.18742349748219816
9.10891089108911,0.19179727996523432
9.12871287128713,0.19599869439816525
9.148514851485148,0.20002157317038524
9.16831683168317,0.2038600926960139
9.188118811881187,0.20750875882259076
9.207920792079207,0.2109623953373388
9.227722772277229,0.21421613497872588
9.247524752475247,0.21726541247883735
9.267326732673267,0.22010595925445087
9.287128712871288,0.22273379943823998
9.306930693069306,0.22514524699970984
9.326732673267326,0.22733690375248009
9.346534653465348,0.2293056580822386
9.366336633663366,0.23104868426053204
9.386138613861386,0.2325634422349304
9.405940594059407,0.23384767780695093
9.425742574257425,0.23489942312703266
9.445544554455445,0.23571699745064875
9.465346534653467,0.23629900811296822
9.485148514851485,0.2366443516909711
9.504950495049505,0.23675221533253993
9.524752475247526,0.2366220782419609
9.544554455445544,0.23625371332091022
9.564356435643564,0.23564718897344314
9.584158415841586,0.2348028710935758
9.603960396039604,0.23372142526453707
9.623762376237623,0.23240381921024283
9.643564356435645,0.23085132555270793
9.663366336633663,0.2290655249439349
9.683168316831683,0.22704830965823455
9.702970297029704,0.22480188775163137
9.722772277227723,0.22232878791962865
9.742574257425742,0.21963186521474057
9.762376237623764,0.21671430782163942
9.782178217821782,0.21357964513287164
9.801980198019802,0.210231757423821
9.821782178217823,0.20667488749544957
9.841584158415841,0.2029136547402733
9.861386138613861,0.19895307219758387
9.881188118811881,0.19479856730350786
9.900990099009901,0.19045600721990263
9.92079207920792,0.1859317298549822
9.94059405940594,0.18123258198332334
9.96039603960396,0.1763659662555513
9.98019801980198,0.17133989938561037
10.0,0.16616308445513708
10.01980198019802,0.16084500112992564
10.03960396039604,0.15539601871101175
10.05940594059406,0.14982753843160873
10.07920792079208,0.1441521733777901
10.099009900990099,0.13838397700310462
10.118811881188119,0.13253873460346277
10.138613861386139,0.1266343365137925
10.158415841584159,0.1206912573489434
10.178217821782178,0.11473317236339466
10.198019801980198,0.10878774957420219
10.217821782178218,0.10288766336653439
10.237623762376238,0.09707187854376571
10.257425742574258,0.0913872458078871
10.277227722772277,0.08589041556846513
10.297029702970297,0.0806499894691243
10.316831683168317,0.07574864423210693
10.336633663366337,0.07128462582683937
10.356435643564357,0.06737149822910635
10.376237623762377,0.06413445673997209
10.396039603960396,0.061701328279500776
