Frequency (Hz),Amplitude
0.0,1.543980959705222
0.04,1.550066639675912
0.08,1.568158265339484
0.12,1.5977783301274249
0.16,1.6381885822968145
0.19999999999999998,1.6884615523425865
0.24,1.7475573179424468
0.27999999999999997,1.8143930288091146
0.32,1.8878978413521075
0.36,1.9670510760829245
0.39999999999999997,2.05090503796701
0.44,2.138595714563714
0.48,2.229344922320261
0.52,2.3224570320323843
0.5599999999999999,2.417312670724385
0.6,2.51336106495685
0.64,2.6101120892661935
0.6799999999999999,2.707128642162391
0.72,2.804019672912027
0.76,2.9004339923435163
0.7999999999999999,2.996054887870117
0.84,3.090595500843895
0.88,3.183794894334811
0.9199999999999999,3.275414728606323
0.96,3.365236461578364
1.0,3.4530589972189776
1.04,3.5386967129594287
1.0799999999999998,3.6219778060881893
1.1199999999999999,3.702742907675602
1.1600000000000001,3.7808439204384494
1.2,3.856143043884575
1.24,3.928511956054869
1.28,3.9978311262585833
1.3199999999999998,4.063989237470512
1.3599999999999999,4.126882700630063
1.4,4.186415246055265
1.44,4.2424975796540485
1.48,4.29504709366403
1.52,4.343987623352199
1.5599999999999998,4.389249242518262
1.5999999999999999,4.4307680918206485
1.64,4.468486234924525
1.68,4.502351538291927
1.72,4.532317571123672
1.76,4.558343522545443
1.7999999999999998,4.580394133625625
1.8399999999999999,4.598439642236758
1.88,4.612455739139312
1.92,4.622423533987424
1.9599999999999997,4.628329530240893
2.0,4.6301656082244875
2.0399999999999996,4.627929015811817
2.08,4.621622366433147
2.12,4.611253644320727
2.1599999999999997,4.596836217117001
2.2,4.578388856186481
2.2399999999999998,4.555935765196528
2.28,4.529506617772133
2.3200000000000003,4.49913660529166
2.36,4.464866496181997
2.4,4.426742708401018
2.44,4.384817397173155
2.48,4.339148560481633
2.5199999999999996,4.289800165333076
2.56,4.236842298413655
2.6,4.180351345471216
2.6399999999999997,4.120410204610023
2.68,4.057108539704017
2.7199999999999998,3.9905430813573886
2.76,3.920817984312247
2.8,3.848045251975356
2.84,3.772345240873101
2.88,3.6938472604209966
2.92,3.612690286498661
2.96,3.5290238110516445
2.9999999999999996,3.44300885440493
3.04,3.35481917227704
3.08,3.26464269572195
3.1199999999999997,3.172683249449443
3.16,3.079162602141977
3.1999999999999997,2.9843229112799485
3.2399999999999998,2.8884296340719775
3.28,2.791774984282578
3.32,2.6946820200706023
3.36,2.597509446955613
3.4,2.500657206998023
3.44,2.404572891079587
3.4799999999999995,2.309758941796299
3.52,2.2167804894871055
3.5599999999999996,2.1262734554944713
3.5999999999999996,2.0389522310033885
3.64,1.955615763747826
3.6799999999999997,1.8771502445718067
3.7199999999999998,1.8045258227962502
3.76,1.7387840488933717
3.7999999999999994,1.6810123821958554
3.84,1.6323026566770469
3.88,1.593692509901525
3.9199999999999995,1.566092811924173
3.96,1.550209564775567
4.0,1.5464737305415295
4.04,1.5549942058376391
4.079999999999999,1.5755455810483059
4.12,1.6075938787038775
4.16,1.6503535932930244
4.199999999999999,1.7028624313741394
4.24,1.7640586412762012
4.28,1.8328490865705334
4.319999999999999,1.9081616590883486
4.36,1.988980682833503
4.4,2.074367285005605
4.4399999999999995,2.163468183477977
4.4799999999999995,2.255516486801585
4.5200000000000005,2.3498275559224404
4.56,2.445792208311723
4.6,2.5428688182309527
4.640000000000001,2.6405752869726595
4.68,2.7384814397692696
4.72,2.8362021277479283
4.76,2.9333911392573273
4.8,3.0297359231146515
4.84,3.124953071774545
4.88,3.2187844872274267
4.92,3.310994144574476
4.96,3.4013653699840276
5.0,3.489698556343498
5.039999999999999,3.5758092485540653
5.08,3.659526539469946
5.12,3.7406917261124675
5.159999999999999,3.8191571835914804
5.2,3.8947854210016812
5.24,3.9674482894276966
5.279999999999999,4.03702631715959
5.319999999999999,4.103408151389632
5.36,4.166490089140149
5.3999999999999995,4.226175683064578
5.4399999999999995,4.282375410163998
5.48,4.335006393451638
5.52,4.3839921682489305
5.56,4.429262486167843
5.6,4.470753150975246
5.64,4.508405881487337
5.68,4.54216819743925
5.72,4.57199332494552
5.76,4.597840118733896
5.8,4.619672998817439
5.84,4.63746189968363
5.879999999999999,4.651182230437836
5.92,4.660814844652909
5.96,4.666346018956337
5.999999999999999,4.6677674396397695
6.04,4.665076196809569
6.08,4.658274785818225
6.119999999999999,4.6473711159308
6.16,4.632378526393825
6.2,4.613315810292069
6.239999999999999,4.590207246807151
6.279999999999999,4.563082642737383
6.32,4.5319773844075755
6.359999999999999,4.496932501398384
6.3999999999999995,4.457994743866393
6.44,4.415216675618895
6.4799999999999995,4.368656785563968
6.52,4.318379620691731
6.56,4.264455944375036
6.6,4.206962924528927
6.64,4.145984357064805
6.68,4.081610931149684
6.72,4.013940544072552
6.76,3.9430786750762716
6.8,3.869138829392198
6.84,3.7922430659846147
6.88,3.7125226252547106
6.92,3.630118676264195
6.959999999999999,3.5451832070244063
7.0,3.4578800861756855
7.04,3.3683863300724934
7.08,3.2768936159968405
7.119999999999999,3.1836100900049265
7.16,3.088762526728178
7.199999999999999,2.9925989080657027
7.239999999999999,2.895391497535975
7.28,2.797440495913231
7.32,2.699078369462597
7.359999999999999,2.600674940783058
7.3999999999999995,2.5026433175944702
7.4399999999999995,2.405446696551432
7.4799999999999995,2.3096060016416318
7.52,2.215708177028543
7.5600000000000005,2.1244147212422235
7.599999999999999,2.0364696859157405
7.64,1.9527058324138387
7.68,1.874046932154095
7.719999999999999,1.8015033664168192
7.76,1.7361574183429416
7.800000000000001,1.6791343514056658
7.839999999999999,1.6315561590397156
7.88,1.5944774395307038
7.92,1.568807496050845
7.959999999999999,1.5552287058056404
8.0,1.5541261875482852
8.040000000000001,1.5655447549902015
8.08,1.5891841515147354
8.12,1.6244338073281763
8.159999999999998,1.6704380453104395
8.2,1.7261763620712802
8.24,1.7905431015808755
8.28,1.8624151692938196
8.32,1.9407023960670613
8.36,2.0243802091260674
8.399999999999999,2.1125073022718164
8.44,2.2042321346603844
8.48,2.2987919777429893
8.52,2.395507533372616
8.56,2.493775312617358
8.6,2.593059224426445
8.639999999999999,2.692882254852036
8.68,2.7928187201601022
8.72,2.892487318608225
8.76,2.991545048055097
8.8,3.0896819672204336
8.84,3.186616732726729
8.879999999999999,3.282092824915872
8.92,3.375875371582887
8.959999999999999,3.4677484831083487
9.0,3.557513020698514
9.040000000000001,3.6449847290585335
9.079999999999998,3.7299926744529803
9.12,3.812377938051935
9.16,3.891992522419246
9.2,3.968698435894725
9.24,4.042366925492785
9.280000000000001,4.112877833882171
9.32,4.180119060140161
9.36,4.243986107407431
9.399999999999999,4.304381703415881
9.44,4.361215482218136
9.48,4.41440371739805
9.52,4.463869098657447
9.559999999999999,4.509540545014971
9.6,4.551353048967659
9.639999999999999,4.5892475468957015
9.68,4.623170811769139
9.72,4.653075364869999
9.76,4.678919403797027
9.8,4.700666744491867
9.84,4.718286775430675
9.879999999999999,4.7317544224768
9.92,4.741050123199384
9.959999999999999,4.746159809738535
10.0,4.747074899548795
10.04,4.7437922935852015
10.079999999999998,4.736314381717868
10.12,4.7246490553766956
10.16,4.708809727644194
10.2,4.688815361236917
10.24,4.664690505050888
10.280000000000001,4.636465340200249
10.319999999999999,4.604175736758478
10.36,4.567863322726082
10.4,4.527575567107552
10.44,4.483365879394663
10.48,4.435293728236721
10.52,4.383424782647116
10.559999999999999,4.327831079769648
10.6,4.26859122403125
10.639999999999999,4.205790623469357
10.68,4.1395217701781
10.72,4.0698845732112785
10.76,3.996986753964709
10.799999999999999,3.9209443161008863
10.84,3.841882104552126
10.879999999999999,3.7599344711374734
10.92,3.675246067962227
10.96,3.587972794161756
11.0,3.4982829268410995
11.04,3.4063584733913173
11.08,3.312396789862802
11.12,3.2166125188290375
11.16,3.1192399101592643
11.2,3.0205355991010605
11.24,2.920781927429787
11.28,2.8202909038436337
11.319999999999999,2.719408906809069
11.36,2.618522232343716
11.4,2.518063573430584
11.44,2.418519475025009
11.48,2.3204387205541983
11.52,2.2244414453856214
11.559999999999999,2.1312285030766787
11.6,2.04159018683333
11.64,1.956412790134237
11.68,1.8766806661662057
11.72,1.8034704896118179
11.759999999999998,1.7379335791551285
11.799999999999999,1.6812619043224533
11.84,1.6346345379452971
11.879999999999999,1.5991446150793298
11.92,1.575712526927568
11.96,1.5649979096821276
11.999999999999998,1.5673280402620977
12.04,1.5826599711216487
12.08,1.610586513156732
12.12,1.6503843602738621
12.16,1.7010916457985858
12.200000000000001,1.7615968703743605
12.239999999999998,1.830722624971594
12.28,1.907293424816728
12.32,1.9901836816617673
12.36,2.078346883985438
12.4,2.17082969022136
12.44,2.2667753160472524
12.479999999999999,2.3654201346115102
12.52,2.466086503666332
12.559999999999999,2.5681739057758803
12.6,2.6711497229175776
12.64,2.7745404084435847
12.68,2.8779234446834354
12.719999999999999,2.980920239875292
12.76,3.083189981044561
12.799999999999999,3.184424386009427
12.84,3.2843432635973193
12.88,3.3826907801314325
12.92,3.479232331912111
12.959999999999999,3.573751931422977
12.999999999999998,3.6660500256073303
13.04,3.7559416757025206
13.08,3.843255038702765
13.12,3.9278301000453957
13.16,4.00951761541375
13.2,4.088178226632345
13.239999999999998,4.16368172259319
13.28,4.235906421128794
13.32,4.304738651876899
13.36,4.370072323596895
13.4,4.431808562216419
13.44,4.489855408212097
13.479999999999999,4.544127563847507
13.52,4.594546182377521
13.559999999999999,4.641038692641541
13.6,4.683538653558499
13.64,4.7219856339449935
13.68,4.756325113837928
13.719999999999999,4.786508404141925
13.76,4.812492581962481
13.799999999999999,4.834240439446545
13.84,4.85172044434857
13.88,4.864906710884825
13.919999999999998,4.873778979742832
13.959999999999999,4.87832260638515
14.0,4.878528557035678
14.04,4.874393411969277
14.08,4.865919375948044
14.120000000000001,4.853114295866622
14.16,4.835991685890046
14.2,4.814570760597368
14.239999999999998,4.788876476888666
14.28,4.75893958567948
14.32,4.724796694702779
14.36,4.686490344073547
14.399999999999999,4.644069096655382
14.44,4.59758764571511
14.479999999999999,4.547106942874864
14.52,4.492694349990627
14.56,4.434423819323357
14.6,4.372376107251757
14.64,4.306639027837595
14.68,4.2373077538371104
14.719999999999999,4.164485174306116
14.76,4.088282319834649
14.799999999999999,4.008818868745968
14.84,3.9262237503978565
14.879999999999999,3.8406358651438794
14.919999999999998,3.7522049446833354
14.959999999999999,3.6610925816074773
15.0,3.5674734631149043
15.04,3.471536851311305
15.079999999999998,3.3734883614164297
15.120000000000001,3.273552099720482
15.159999999999998,3.1719732353028807
15.199999999999998,3.0690210931566178
15.24,2.964992870818212
15.28,2.860218094453359
15.319999999999999,2.755063940774466
15.36,2.649941553033488
15.399999999999999,2.5453134637643045
15.439999999999998,2.4417021892576756
15.48,2.339699957715408
15.52,2.239979339864495
15.559999999999999,2.1433042192352
15.600000000000001,2.0505400101798297
15.639999999999999,1.9626612494604674
15.679999999999998,1.8807536382019625
15.72,1.8060064003253582
15.76,1.739689794266336
15.799999999999999,1.68311246757649
15.84,1.637555121079551
15.879999999999999,1.6041816428127784
15.919999999999998,1.5839364935355484
15.96,1.5774455889367047
16.0,1.5849429300032052
16.04,1.606242407646299
16.080000000000002,1.6407627865855725
16.12,1.6875985679495251
16.16,1.7456177116616554
16.200000000000003,1.8135639716338452
16.24,1.8901463103009812
16.279999999999998,1.9741062280813009
16.319999999999997,2.0642615244128426
16.36,2.159529820762751
16.4,2.2589370640400532
16.439999999999998,2.361616155647215
16.48,2.466799860084621
16.52,2.5738109497958117
16.56,2.6820514941839297
16.6,2.7909924132857524
16.64,2.9001638809976784
16.68,3.0091468252994398
16.72,3.117565575067839
16.759999999999998,3.225081596541055
16.799999999999997,3.3313882122995255
16.84,3.436206178309812
16.88,3.5392799952391067
16.919999999999998,3.640374839849655
16.96,3.7392740155713335
17.0,3.8357768354252046
17.04,3.9296968638410297
17.080000000000002,4.020860455904391
17.12,4.10910554296644
17.16,4.194280622372538
17.2,4.2762439164500305
17.24,4.354862672019751
17.279999999999998,4.430012576746137
17.32,4.501577272791434
17.36,4.569447951644794
17.4,4.633523016789705
17.44,4.69370780316459
17.48,4.749914344254138
17.52,4.802061179198868
17.56,4.85007319359007
17.6,4.893881488676838
17.64,4.933423274593106
17.68,4.9686417839486685
17.72,4.9994862027465325
17.759999999999998,5.025911616112139
17.799999999999997,5.047878966766053
17.84,5.065355024556131
17.88,5.078312365700253
17.919999999999998,5.086729360687497
17.96,5.090590170052721
18.0,5.089884747485418
18.04,5.0846088499651785
18.080000000000002,5.074764054839803
18.12,5.0603577839844425
18.159999999999997,5.041403335407314
18.2,5.017919922905921
18.24,4.989932724634362
18.279999999999998,4.9574729417249035
18.32,4.9205778684241155
18.36,4.879290975565931
18.4,4.833662009622874
18.44,4.783747110067074
18.48,4.7296089483520145
18.52,4.671316892516013
18.560000000000002,4.6089472022356395
18.6,4.542583260154495
18.64,4.47231584652096
18.679999999999996,4.398243465638176
18.72,4.320472734423937
18.759999999999998,4.239118845575942
18.799999999999997,4.154306120536562
18.84,4.066168670772209
18.88,3.9748511899745105
18.919999999999998,3.880509904836104
18.96,3.783313718272482
19.0,3.683445586611606
19.04,3.5811041816499785
19.080000000000002,3.47650589989452
19.119999999999997,3.369887295078113
19.159999999999997,3.26150802637253
19.2,3.151654433620238
19.24,3.0406438718800723
19.279999999999998,2.92882995921308
19.32,2.816608910798327
19.36,2.7044271430460634
19.4,2.59279032219704
19.44,2.482273983608578
19.48,2.37353572858964
19.52,2.2673287653776537
19.560000000000002,2.164516127342684
19.6,2.0660841816999294
19.639999999999997,1.9731529418221099
19.68,1.886979179896954
19.72,1.8089465538655238
19.759999999999998,1.740535454041681
19.8,1.6832651821898277
19.84,1.6386040943130382
19.88,1.6078509566973516
19.919999999999998,1.5920025431911211
19.96,1.5916342723275807
20.0,1.606825103262591
20.04,1.637149181290309
20.08,1.6817366680617485
20.119999999999997,1.7393848774693077
20.159999999999997,1.8086892953244167
20.2,1.888166014830229
20.24,1.976347926508776
20.279999999999998,2.0718491666984944
20.32,2.173400893651313
20.36,2.279865335719868
20.4,2.3902354838007174
20.44,2.503626505837691
20.48,2.6192632066567474
20.52,2.736466287021495
20.560000000000002,2.8546389831704926
20.599999999999998,2.9732548839556956
20.639999999999997,3.0918472408706252
20.68,3.20999981292098
20.72,3.327339147673895
20.759999999999998,3.44352813846136
20.8,3.558260680824263
20.84,3.6712572575027766
20.88,3.7822612981097072
20.92,3.891036180107586
20.96,3.99736275820825
21.0,4.101037328099439
21.04,4.201869946811804
21.08,4.299683045964174
21.119999999999997,4.394310285729038
21.159999999999997,4.485595606918946
21.2,4.5733924464114954
21.24,4.657563087494983
21.279999999999998,4.73797812188697
21.32,4.814516004374249
21.36,4.887062684429984
21.4,4.955511301933251
21.44,5.019761936371868
21.48,5.079721400750732
21.52,5.135303072935707
21.56,5.186426758401835
21.599999999999998,5.233018579376783
21.639999999999997,5.275010886217314
21.68,5.312342187562486
21.72,5.344957096399077
21.759999999999998,5.372806289674868
21.8,5.395846479521862
21.84,5.414040394519157
21.88,5.427356769746502
21.92,5.435770344664821
21.96,5.4392618681184315
22.0,5.437818109992769
22.04,5.431431879288692
22.08,5.420102048596191
22.119999999999997,5.403833585173204
22.16,5.382637589065667
22.2,5.3565313389498606
22.24,5.325538346644942
22.28,5.28968842154096
22.32,5.2490177465252055
22.36,5.203568967379317
22.4,5.153391298075145
22.44,5.098540644935828
22.48,5.039079753271515
22.519999999999996,4.975078380872101
22.56,4.906613503675789
22.599999999999998,4.833769560072734
22.639999999999997,4.756638741699894
22.68,4.675321340301887
22.72,4.589926162356997
22.759999999999998,4.500571025803467
22.8,4.4073833564845355
22.84,4.310500906033682
22.88,4.210072618064346
22.92,4.106259675989638
22.96,3.9992367739299612
23.0,3.8891936624109475
23.04,3.776337033454477
23.08,3.6608928258775086
23.119999999999997,3.5431090518957067
23.16,3.4232592713016508
23.2,3.3016468703153214
23.24,3.1786103391404947
23.28,3.054529784927207
23.32,2.929834963032824
23.36,2.8050151533311487
23.400000000000002,2.680631237076104
23.44,2.557330318304372
23.479999999999997,2.435863135518026
23.519999999999996,2.3171042437411122
23.56,2.2020743830571887
23.599999999999998,2.091963394328748
23.639999999999997,1.9881502549314125
23.68,1.8922140885533196
23.72,1.8059264510881403
23.759999999999998,1.7312117030696526
23.8,1.6700611867133963
23.84,1.6243921674607018
23.88,1.5958578531935543
23.92,1.585639207789809
23.96,1.5942719003123536
23.999999999999996,1.6215646893852815
24.04,1.6666386798648234
24.08,1.7280721592515649
24.119999999999997,1.8041006711622425
24.16,1.8928154390264962
24.2,1.9923212374898025
24.24,2.100840021798702
24.28,2.2167652241995013
24.32,2.338679810427386
24.36,2.4653517485963503
24.400000000000002,2.5957176086766443
24.439999999999998,2.7288614271688987
24.479999999999997,2.863993015378715
24.52,3.0004278524867956
24.56,3.1375694551777302
24.599999999999998,3.2748944201237635
24.64,3.4119399879934806
24.68,3.5482938312526544
24.72,3.683585729620881
24.759999999999998,3.8174808115971834
24.8,3.9496740773528964
24.84,4.079885961481827
24.88,4.2078587358457495
24.92,4.333353589794631
24.959999999999997,4.456148256422816
24.999999999999996,4.576035079397248
25.04,4.692819435878508
25.08,4.806318447903665
25.119999999999997,4.916359928048297
25.16,5.022781515886461
25.2,5.125429970274162
25.24,5.224160589245824
25.28,5.318836734698592
25.32,5.4093294433357535
25.36,5.495517108777187
25.4,5.577285222501769
25.439999999999998,5.654526163506021
25.479999999999997,5.727139028356027
25.52,5.795029494763564
25.56,5.858109713001183
25.599999999999998,5.916298220439024
25.64,5.969519875281613
25.68,6.017705806239613
25.72,6.060793375416993
25.76,6.098726152149713
25.8,6.131453895915789
25.84,6.158932546761961
25.880000000000003,6.18112422197146
25.919999999999998,6.197997217939263
25.959999999999997,6.209526016434228
25.999999999999996,6.215691294617961
26.04,6.216479938363798
26.08,6.211885058581456
26.119999999999997,6.201906010407537
26.16,6.186548415274217
26.2,6.16582418602167
26.24,6.1397515553788
26.28,6.108355108305846
26.32,6.071665818876442
26.36,6.029721092581326
26.4,5.9825648151673
26.439999999999998,5.9302474093911375
26.479999999999997,5.872825901377672
26.52,5.810363998635691
26.56,5.742932182217596
26.599999999999998,5.670607816026704
26.64,5.593475276899556
26.68,5.511626109846993
26.72,5.425159213759525
26.76,5.334181064012205
26.8,5.238805979794968
26.84,5.139156445714751
26.88,5.035363499352632
26.919999999999998,4.927567199125207
26.959999999999997,4.815917190138321
27.0,4.7005733899191515
27.04,4.581706821208808
27.08,4.459500625700811
27.119999999999997,4.334151301117403
27.16,4.205870214832887
27.2,4.074885461023528
27.24,3.9414441458499008
27.28,3.8058152074387674
27.32,3.66829290557352
27.36,3.5292011512701733
27.4,3.3888988899618764
27.439999999999998,3.2477868044560783
27.479999999999997,3.106315664329933
27.52,2.9649967128958323
27.56,2.8244145405484153
27.599999999999998,2.6852429206474886
27.64,2.548264034189491
27.68,2.414391295137994
27.72,2.2846954576297462
27.76,2.160432596278203
27.8,2.043070559589542
27.839999999999996,1.9343072356839246
27.88,1.8360693226007165
27.919999999999998,1.750475058021427
27.959999999999997,1.679741303535112
28.0,1.6260199695581963
28.04,1.5911674242865748
28.08,1.576483881307018
28.12,1.5824936623497123
28.16,1.6088443912770751
28.2,1.6543659335837604
28.240000000000002,1.7172655310406835
28.28,1.795386951130122
28.32,1.8864564062262934
28.359999999999996,1.9882673473840373
28.4,2.098792231370482
28.439999999999998,2.2162328426872766
28.479999999999997,2.339028827297046
28.52,2.4658424900230296
