Frequency (Hz),Amplitude
0.0,3.3149882600337826
0.01978021978021978,3.325627095586986
0.03956043956043956,3.3572997998192484
0.05934065934065934,3.4092976891748195
0.07912087912087912,3.480510458478124
0.0989010989010989,3.5695170725265126
0.11868131868131868,3.674687872944684
0.13846153846153844,3.7942828140991227
0.15824175824175823,3.9265352897377914
0.17802197802197803,4.069716466323416
0.1978021978021978,4.222179616499895
0.21758241758241756,4.3823868666912436
0.23736263736263735,4.548922083638335
0.2571428571428572,4.720493780332976
0.2769230769230769,4.895931435885319
0.2967032967032967,5.074177892941149
0.31648351648351647,5.254279761210103
0.3362637362637363,5.435377130767934
0.35604395604395606,5.616693417774194
0.3758241758241758,5.797525819932093
0.3956043956043956,5.977236624629118
0.4153846153846154,6.155245461611281
0.4351648351648351,6.33102249995487
0.45494505494505494,6.504082536924556
0.4747252747252747,6.673979900068673
0.4945054945054945,6.840304073842949
0.5142857142857143,7.002675961609163
0.5340659340659341,7.160744698749599
0.5538461538461538,7.314184940171162
0.5736263736263736,7.462694553998882
0.5934065934065934,7.605992661816835
0.6131868131868132,7.743817973881999
0.6329670329670329,7.8759273750602645
0.6527472527472528,8.002094723722825
0.6725274725274726,8.122109831497903
0.6923076923076923,8.235777596649658
0.7120879120879121,8.342917268029014
0.7318681318681318,8.443361820093724
0.7516483516483516,8.536957422510273
0.7714285714285715,8.623562990405533
0.7912087912087912,8.703049803500308
0.810989010989011,8.775301184192083
0.8307692307692308,8.840212226212625
0.8505494505494506,8.897689566813378
0.8703296703296702,8.947651196566605
0.8901098901098901,8.990026301845992
0.9098901098901099,9.024755135894678
0.9296703296703297,9.051788915125893
0.9494505494505494,9.071089737951421
0.9692307692307692,9.082630524014057
0.989010989010989,9.086394972227529
1.0087912087912088,9.082377536514427
1.0285714285714287,9.070583418592278
1.0483516483516484,9.051028577601528
1.0681318681318681,9.023739756807592
1.087912087912088,8.988754528053574
1.1076923076923075,8.946121355101525
1.1274725274725275,8.895899677489773
1.1472527472527472,8.838160017064924
1.1670329670329669,8.772984109932608
1.1868131868131868,8.700465067227555
1.2065934065934065,8.620707568848264
1.2263736263736265,8.533828095155643
1.2461538461538462,8.43995520262265
1.2659340659340659,8.33922985057167
1.2857142857142858,8.23180578748195
1.3054945054945055,8.117850006929972
1.3252747252747252,7.997543285088114
1.3450549450549452,7.8710808139048725
1.3648351648351649,7.738672946686162
1.3846153846153846,7.600546075862592
1.4043956043956045,7.45694366634148
1.4241758241758242,7.3081274720891365
1.443956043956044,7.1543789685554335
1.4637362637362636,6.996001039316232
1.4835164835164834,6.833319961924627
1.5032967032967033,6.666687745432141
1.523076923076923,6.496484880273964
1.542857142857143,6.323123569949766
1.5626373626373626,6.147051522637141
1.5824175824175823,5.968756388564192
1.6021978021978023,5.788770933949438
1.621978021978022,5.607679041814591
1.6417582417582417,5.426122619587793
1.6615384615384616,5.244809466378637
1.6813186813186813,5.0645220990649
1.7010989010989013,4.886127441470998
1.720879120879121,4.710587125273455
1.7406593406593405,4.53896790981513
1.7604395604395604,4.372451372409985
1.7802197802197801,4.212341525813773
1.7999999999999998,4.060068377806284
1.8197802197802198,3.917184695842726
1.8395604395604395,3.7853524983809654
1.8593406593406594,3.6663153162778266
1.879120879120879,3.5618524651188466
1.8989010989010988,3.4737129708119814
1.9186813186813187,3.403529851666122
1.9384615384615385,3.352720197392837
1.9582417582417584,3.322382048722854
1.978021978021978,3.31320359703605
1.9978021978021978,3.325401327453135
2.0175824175824175,3.358699842476193
2.0373626373626372,3.4123577472172917
2.0571428571428574,3.4852339782638655
2.076923076923077,3.575881059286422
2.096703296703297,3.682648544587411
2.1164835164835165,3.8037815723648714
2.1362637362637362,3.937504229137622
2.1560439560439564,4.08208296609451
2.175824175824176,4.235869853718022
2.195604395604396,4.397328293291449
2.215384615384615,4.565045020974203
2.2351648351648348,4.737732323405869
2.254945054945055,4.914223853149519
2.2747252747252746,5.09346667966069
2.2945054945054943,5.2745114699300935
2.314285714285714,5.45650206987618
2.3340659340659338,5.638665281913621
2.353846153846154,5.820301294969313
2.3736263736263736,6.000774994439033
2.3934065934065933,6.17950823306282
2.413186813186813,6.355973055089833
2.4329670329670328,6.52968581646244
2.452747252747253,6.700202119292872
2.4725274725274726,6.8671124700643125
2.4923076923076923,7.030038571355802
2.512087912087912,7.188630162311559
2.5318681318681318,7.342562330941312
2.5516483516483515,7.491533230065314
2.5714285714285716,7.635262137391868
2.5912087912087913,7.7734878083421455
2.610989010989011,7.905967077586209
2.6307692307692307,8.032473671746315
2.6505494505494505,8.152797201371959
2.6703296703296706,8.266742305152425
2.6901098901098903,8.37412792348736
2.70989010989011,8.47478668206929
2.7296703296703297,8.568564369128978
2.7494505494505495,8.6553194925323
2.769230769230769,8.734922905066163
2.7890109890109893,8.807257488072095
2.808791208791209,8.872217885132319
2.8285714285714287,8.92971027882978
2.8483516483516484,8.979652204729568
2.8681318681318677,9.021972397697034
2.887912087912088,9.056610666505991
2.9076923076923076,9.083517793421533
2.9274725274725273,9.102655456088423
2.947252747252747,9.113996169632655
2.9670329670329667,9.117523247408965
2.986813186813187,9.113230779311857
3.0065934065934066,9.101123627026526
3.0263736263736263,9.081217436038925
3.046153846153846,9.05353866466348
3.0659340659340657,9.01812463079236
3.085714285714286,8.975023577534055
3.1054945054945056,8.924294759401652
3.1252747252747253,8.866008551247345
3.145054945054945,8.800246582730939
3.1648351648351647,8.727101901774802
3.184615384615385,8.646679171212579
3.2043956043956046,8.55909490370617
3.2241758241758243,8.464477741009341
3.243956043956044,8.362968784827231
3.2637362637362637,8.254721987892369
3.2835164835164834,8.139904615491833
3.3032967032967036,8.01869778958404
3.3230769230769233,7.8912971298943555
3.342857142857143,7.757913509041377
3.3626373626373627,7.618773941895127
3.3824175824175824,7.474122633087993
3.4021978021978025,7.324222210980357
3.4219780219780223,7.169355181517649
3.441758241758242,7.009825641391584
3.4615384615384617,6.845961296799331
3.481318681318681,6.67811584189537
3.501098901098901,6.506671759671463
3.520879120879121,6.332043617233305
3.5406593406593405,6.154681936739033
3.5604395604395602,5.975077731636096
3.58021978021978,5.79376780356408
3.5999999999999996,5.611340895541233
3.61978021978022,5.428444787288364
3.6395604395604395,5.245794391756663
3.659340659340659,5.064180857628025
3.679120879120879,4.8844815856303905
3.6989010989010986,4.707670906192864
3.718681318681319,4.534830915653751
3.7384615384615385,4.367161597514552
3.758241758241758,4.2059888366568545
3.7780219780219784,4.052768258840238
3.7978021978021976,3.9090820326231257
3.8175824175824173,3.7766249836471375
3.8373626373626375,3.6571758611769862
3.8571428571428568,3.5525498061085306
3.876923076923077,3.464529565730682
3.896703296703296,3.394776269778503
3.916483516483517,3.344725630575557
3.936263736263736,3.3154813180487954
3.956043956043956,3.3077219483201388
3.9758241758241755,3.3216390804809466
3.9956043956043956,3.3569192237138865
4.015384615384615,3.4127738137201007
4.035164835164835,3.4880105682372378
4.054945054945055,3.5811315729381565
4.0747252747252745,3.690440481573014
4.094505494505494,3.8141433526305804
4.114285714285715,3.9504328799486625
4.134065934065934,4.09755159414557
4.153846153846154,4.2538342408111784
4.173626373626373,4.417732321990196
4.193406593406594,4.587824895908987
4.213186813186813,4.762819703596325
4.232967032967033,4.941548076227241
4.252747252747253,5.122956270610772
4.2725274725274724,5.306095109930878
4.292307692307692,5.490109171940598
4.312087912087913,5.674226289184231
4.331868131868132,5.857747789574829
4.351648351648352,6.040039681625155
4.371428571428571,6.220524847073337
4.391208791208792,6.398676219454797
4.410989010989011,6.57401088115508
4.43076923076923,6.746084989849455
4.450549450549451,6.914489438526837
4.4703296703296695,7.07884615523434
4.49010989010989,7.238804955237754
4.50989010989011,7.394040866970581
4.52967032967033,7.5442518624442805
4.549450549450549,7.689156931865896
4.569230769230769,7.828494450612602
4.589010989010989,7.962020794249708
4.608791208791209,8.089509163898322
4.628571428571428,8.210748589990828
4.648351648351649,8.325543087368239
4.6681318681318675,8.433710938862072
4.687912087912088,8.535084088057053
4.707692307692308,8.629507624938656
4.7274725274725276,8.716839350672052
4.747252747252747,8.79694940990875
4.767032967032967,8.869719980836685
4.786813186813187,8.935045014732415
4.806593406593407,8.99283001808744
4.826373626373626,9.042991871502052
4.846153846153847,9.085458680504454
4.8659340659340655,9.12016965428672
4.885714285714286,9.147075009077492
4.905494505494506,9.166135893513998
4.9252747252747255,9.177324333950876
4.945054945054945,9.18062319816605
4.964835164835165,9.176026176407447
4.984615384615385,9.163537779182626
5.004395604395604,9.143173351636024
5.024175824175824,9.114959104798729
5.043956043956045,9.078932164442767
5.0637362637362635,9.035140638738289
5.083516483516483,8.983643706409309
5.103296703296703,8.924511727624427
5.123076923076923,8.857826380458548
5.142857142857143,8.783680826435525
5.162637362637362,8.702179909429404
5.182417582417583,8.613440393085455
5.2021978021978015,8.517591242947242
5.221978021978022,8.414773960673534
5.241758241758242,8.305142979135113
5.2615384615384615,8.188866128839543
5.281318681318681,8.066125188092595
5.301098901098901,7.937116531628554
5.320879120879121,7.802051895197359
5.340659340659341,7.661159276866052
5.36043956043956,7.514683999665682
5.380219780219781,7.3628899647937756
5.3999999999999995,7.206061129972217
5.41978021978022,7.044503253862874
5.43956043956044,6.878545954742676
5.4593406593406595,6.70854513997461
5.479120879120879,6.534885872127879
5.498901098901099,6.3579857476835935
5.518681318681319,6.178298874611876
5.538461538461538,5.996320544757227
5.558241758241758,5.812592704207931
5.578021978021979,5.627710326767782
5.5978021978021975,5.442328787628674
5.617582417582418,5.257172309057834
5.637362637362637,5.073043496307718
5.6571428571428575,4.89083388390176
5.676923076923077,4.711535247501996
5.696703296703297,4.536251175518364
5.716483516483517,4.3662080033556645
5.736263736263735,4.202763659625639
5.756043956043956,4.047412244081594
5.775824175824176,3.9017812872320397
5.795604395604395,3.767617765666807
5.815384615384615,3.6467583570986073
5.835164835164835,3.5410796041348176
5.854945054945055,3.4524252532654853
5.874725274725275,3.3825116011387393
5.894505494505494,3.332817231527005
5.914285714285715,3.3044700069878723
5.934065934065933,3.2981492805078476
5.953846153846154,3.314022167409917
5.973626373626374,3.351727615452356
5.993406593406593,3.4104118558811076
6.013186813186813,3.488807268529173
6.032967032967033,3.5853382149046373
6.052747252747253,3.698234697668492
6.072527472527473,3.8256375451293736
6.092307692307692,3.9656847908298576
6.112087912087913,4.116575234745916
6.131868131868131,4.276609993942611
6.151648351648352,4.44421559691907
6.171428571428572,4.6179531415184085
6.191208791208791,4.796517849693853
6.210989010989011,4.9787326067367035
6.230769230769231,5.16353817762333
6.2505494505494505,5.349981971683196
6.270329670329671,5.537206567424489
6.29010989010989,5.724438723722786
6.309890109890111,5.910979268172173
6.329670329670329,6.096194034186336
6.349450549450549,6.279505882892216
6.36923076923077,6.460387767473701
6.3890109890109885,6.638356756612456
6.408791208791209,6.812968916098818
6.428571428571428,6.983814944133575
6.4483516483516485,7.150516460172181
6.468131868131868,7.312722855501377
6.487912087912088,7.470108623721282
6.507692307692308,7.6223710995542335
6.527472527472527,7.7692285441580635
6.547252747252747,7.91041852401345
6.567032967032967,8.045696538339332
6.5868131868131865,8.174834856855124
6.606593406593407,8.297621535612704
6.626373626373626,8.413859583656754
6.6461538461538465,8.523366257543104
6.665934065934065,8.625972464354751
6.685714285714286,8.721522256900252
6.705494505494506,8.809872407346408
6.725274725274725,8.890892047702248
6.745054945054945,8.964462367399818
6.764835164835165,9.030476359765272
6.7846153846153845,9.088838610488764
6.804395604395605,9.139465122323596
6.824175824175824,9.18228317120807
6.8439560439560445,9.217231189835847
6.863736263736263,9.244258675427082
6.883516483516484,9.263326119093083
6.903296703296704,9.274404954760723
6.923076923076923,9.2774775261436
6.942857142857143,9.272537070729998
6.962637362637362,9.259587720214798
6.9824175824175825,9.238644517245914
7.002197802197802,9.209733448796303
7.021978021978022,9.17289149692212
7.041758241758242,9.128166708136726
7.061538461538461,9.07561828313199
7.081318681318681,9.015316689125788
7.101098901098901,8.947343797722269
7.1208791208791204,8.871793051856972
7.140659340659341,8.788769666181787
7.16043956043956,8.69839086614738
7.1802197802197805,8.600786172091706
7.199999999999999,8.496097735873613
7.21978021978022,8.384480739039674
7.23956043956044,8.266103863226006
7.259340659340659,8.141149845529661
7.279120879120879,8.009816134000818
7.298901098901099,7.872315661284892
7.318681318681318,7.728877757870384
7.338461538461539,7.579749230477946
7.358241758241758,7.425195635972347
7.3780219780219785,7.2655027869168025
7.397802197802197,7.100978531644521
7.417582417582418,6.931954859610068
7.437362637362638,6.758790391879271
7.457142857142857,6.581873326916067
7.476923076923077,6.401624923165128
7.496703296703297,6.2185036118727455
7.516483516483516,6.033009845228278
7.536263736263736,5.845691794572277
7.556043956043957,5.657152018212704
7.575824175824176,5.468055213535173
7.595604395604395,5.279137145958997
7.615384615384615,5.0912147961183765
7.635164835164835,4.905197668966543
7.654945054945055,4.72210003950799
7.674725274725275,4.543053636504817
7.694505494505494,4.369319847882743
7.7142857142857135,4.2022999298441945
7.734065934065935,4.043540893622354
7.753846153846154,3.894733759541196
7.7736263736263735,3.7576998471811742
7.793406593406592,3.6343600349715826
7.813186813186814,3.5266820311027898
7.832967032967034,3.4366024004547784
7.852747252747252,3.36592406895563
7.872527472527472,3.3161963413020454
7.892307692307693,3.2885919072703254
7.912087912087912,3.283801149843842
7.931868131868132,3.3019649311475345
7.951648351648351,3.3426609038514963
7.971428571428572,3.404946521756943
7.991208791208791,3.487448774003405
8.010989010989011,3.5884814741029536
8.03076923076923,3.7061686127347264
8.05054945054945,3.8385561796818357
8.07032967032967,3.9837019513338303
8.09010989010989,4.139739813152212
8.10989010989011,4.304920301895759
8.129670329670331,4.47763175210455
8.149450549450549,4.6564071887880045
8.169230769230769,4.839921688119064
8.189010989010988,5.026983992179437
8.20879120879121,5.216525140542178
8.22857142857143,5.407585985843732
8.248351648351647,5.599304765365448
8.268131868131867,5.790905402852569
8.287912087912087,5.981686879937714
8.307692307692308,6.171013803625608
8.327472527472528,6.3583081688564285
8.347252747252746,6.5430422446891034
8.367032967032966,6.724732478500255
8.386813186813187,6.902934300605389
8.406593406593407,7.077237712523318
8.426373626373627,7.247263549759912
8.446153846153845,7.412660320810343
8.465934065934066,7.573101535895169
8.485714285714286,7.72828345053334
8.505494505494505,7.877923159782895
8.525274725274725,8.02175698857269
8.545054945054945,8.159539131935254
8.564835164835165,8.291040506174628
8.584615384615384,8.416047778162183
8.604395604395604,8.534362545169436
8.624175824175826,8.645800642044481
8.643956043956043,8.750191556236896
8.663736263736263,8.847377934281871
8.683516483516483,8.937215165962849
8.703296703296704,9.01957103456445
8.723076923076924,9.094325423473917
8.742857142857142,9.161370070948168
8.762637362637362,9.22060836618496
8.782417582417583,9.271955180961644
8.802197802197803,9.315336732069063
8.821978021978023,9.350690470600092
8.84175824175824,9.377964994877543
8.86153846153846,9.397119984445265
8.881318681318682,9.408126153117859
8.901098901098901,9.41096521960383
8.920879120879121,9.405629894698668
8.940659340659339,9.392123884500823
8.96043956043956,9.370461909546687
8.98021978021978,9.340669740202118
9.0,9.302784249098925
9.01978021978022,9.256853481877306
9.03956043956044,9.202936748001289
9.05934065934066,9.141104733968447
9.079120879120879,9.07143964185219
9.098901098901099,8.99403535681299
9.11868131868132,8.908997648014415
9.138461538461538,8.816444408305347
9.158241758241758,8.716505939109615
9.178021978021977,8.609325288233812
9.197802197802199,8.49505864980394
9.217582417582419,8.37387583732163
9.237362637362637,8.245960842951083
9.257142857142856,8.111512498679264
9.276923076923078,7.97074525801992
9.296703296703297,7.823890120556886
9.316483516483517,7.671195725961594
9.336263736263735,7.512929649308276
9.356043956043957,7.349379935698639
9.375824175824176,7.1808569195561125
9.395604395604396,7.007695382617078
9.415384615384616,6.830257114766172
9.435164835164835,6.648933953500304
9.454945054945055,6.46415139088762
9.474725274725275,6.2763728510772125
9.494505494505495,6.086104755917167
9.514285714285714,5.8939025094826105
9.534065934065934,5.70037754146504
9.553846153846154,5.506205549582866
9.573626373626373,5.312136064493086
9.593406593406593,5.119003414546326
9.613186813186815,4.927739072976385
9.632967032967032,4.739385198808737
9.652747252747252,4.555108896463773
9.672527472527472,4.376216269315583
9.692307692307693,4.204164677403408
9.712087912087913,4.040570692204741
9.731868131868131,3.8872100897627817
9.75164835164835,3.7460049790654963
9.771428571428572,3.618992184841996
9.791208791208792,3.508266951464425
9.810989010989012,3.4158978333140073
9.83076923076923,3.343813176867537
9.850549450549451,3.293667051642267
9.87032967032967,3.2667014284074933
9.89010989010989,3.2636284597825838
9.90989010989011,3.284557654043835
9.92967032967033,3.328985068414971
9.94945054945055,3.395847121836459
9.96923076923077,3.4836260129214778
9.989010989010989,3.590483475927902
10.008791208791209,3.7143979156669276
10.028571428571428,3.8532854997697576
10.048351648351648,4.005094552728045
10.068131868131868,4.167870749023123
10.08791208791209,4.339796094493175
10.107692307692307,4.519207271663415
10.127472527472527,4.704599356353117
10.147252747252747,4.894620150247459
10.167032967032966,5.088059170493742
10.186813186813188,5.2838341393636075
10.206593406593406,5.4809768239987955
10.226373626373626,5.678619336587812
10.246153846153845,5.875981494358499
10.265934065934067,6.072359506967654
10.285714285714286,6.267116055927412
10.305494505494504,6.459671715030344
10.325274725274724,6.649497601335677
10.345054945054946,6.8361091215477625
10.364835164835165,7.0190606741818256
10.384615384615385,7.197941174569491
10.404395604395603,7.372370281824784
10.424175824175824,7.541995220992415
10.443956043956044,7.706488107822602
10.463736263736264,7.865543696955209
10.483516483516484,8.018877486290203
10.503296703296703,8.16622412082452
10.523076923076923,8.307336048274573
10.542857142857143,8.441982386492612
10.562637362637362,8.569947969174773
10.582417582417584,8.691032541808339
10.602197802197802,8.805050084367496
10.621978021978022,8.911828241079522
10.641758241758241,9.01120784076867
10.661538461538463,9.103042493947035
10.681318681318682,9.187198255050761
10.7010989010989,9.26355334008943
10.72087912087912,9.331997891550257
10.740659340659342,9.392433783728615
10.760439560439561,9.444774462785642
10.780219780219781,9.488944816799272
10.799999999999999,9.524881071906732
10.819780219780219,9.552530711360163
10.83956043956044,9.571852414954273
