Time (s),Filtered Signal
0.0,0.0677696469093972
0.03337000366703337,0.060973613017003624
0.06674000733406674,0.040578708651605906
0.1001100110011001,0.008013652814484311
0.13348001466813347,-0.016263977843087685
0.16685001833516683,-0.000126279119496539
0.2002200220022002,0.08367219367411112
0.2335900256692336,0.24073501959213464
0.26696002933626695,0.4478588907428161
0.3003300330033003,0.6602735857118817
0.33370003667033366,0.8298852636718668
0.36707004033736707,0.9246126882256277
0.4004400440044004,0.9383157083638377
0.4338100476714338,0.8866962648238708
0.4671800513384672,0.7931821732151795
0.5005500550055005,0.6745497151785257
0.5339200586725339,0.5351670769618636
0.5672900623395672,0.372036999285227
0.6006600660066006,0.18512723996037445
0.634030069673634,-0.015703936375513677
0.6674000733406673,-0.21240465654997834
0.7007700770077008,-0.3869660336075822
0.7341400806747341,-0.5287437015009946
0.7675100843417675,-0.6343092945826829
0.8008800880088008,-0.6999648008507703
0.8342500916758342,-0.7143208677238786
0.8676200953428675,-0.6600106502585714
0.9009900990099009,-0.5273766443671839
0.9343601026769344,-0.33270221795482335
0.9677301063439677,-0.1270040132955428
1.001100110011001,0.015487334571197192
1.0344701136780343,0.027966694553329757
1.0678401173450678,-0.11383628547136067
1.1012101210121013,-0.3722296561114562
1.1345801246791345,-0.6570419241919202
1.167950128346168,-0.8616500415214443
1.2013201320132012,-0.908400995414857
1.2346901356802347,-0.7810980771907413
1.268060139347268,-0.5292052655981985
1.3014301430143014,-0.24288385581578867
1.3348001466813346,-0.011692594585682647
1.368170150348368,0.11383171155259603
1.4015401540154016,0.14129445842930716
1.4349101576824348,0.1292214536467215
1.4682801613494683,0.15772361258368178
1.5016501650165015,0.290048920371558
1.535020168683535,0.5413963808218366
1.5683901723505682,0.8682865595609215
1.6017601760176017,1.1832390809872277
1.6351301796846351,1.388637503339287
1.6685001833516684,1.415088521430624
1.7018701870187019,1.2475353316323874
1.735240190685735,0.9282786219142769
1.7686101943527686,0.5371537084349502
1.8019801980198018,0.15962946846699658
1.8353502016868353,-0.14199031968630912
1.8687202053538687,-0.3426573747468068
1.902090209020902,-0.4511437582013371
1.9354602126879354,-0.4948948860746179
1.9688302163549687,-0.5030089929598859
2.002200220022002,-0.49547369775201194
2.0355702236890356,-0.4814916638292766
2.0689402273560686,-0.46434987774523295
2.102310231023102,-0.44755415333599
2.1356802346901356,-0.43760805546203324
2.169050238357169,-0.4417643918423119
2.2024202420242025,-0.4623966557299261
2.2357902456912355,-0.4916981446196261
2.269160249358269,-0.5104672041011287
2.3025302530253025,-0.4929055341632695
2.335900256692336,-0.41641752239893864
2.369270260359369,-0.2725764880790938
2.4026402640264024,-0.0741111214146003
2.436010267693436,0.14606265262134385
2.4693802713604693,0.34425721389316377
2.502750275027503,0.4801851878203511
2.536120278694536,0.5296761959309503
2.5694902823615693,0.49053193753518126
2.6028602860286028,0.3799179392729763
2.636230289695636,0.22616173048333693
2.6696002933626692,0.06012681263048241
2.7029702970297027,-0.08987545302783317
2.736340300696736,-0.1992612467647436
2.7697103043637696,-0.24729598565159477
2.803080308030803,-0.21954799029018504
2.836450311697836,-0.1135388587274917
2.8698203153648696,0.05525193754348252
2.903190319031903,0.2519782213153134
2.9365603226989365,0.429231305960403
2.96993032636597,0.5413156113481431
3.003300330033003,0.5604481385431807
3.0366703337000365,0.4872573443422037
3.07004033736707,0.3502235161136505
3.1034103410341034,0.19412435027025154
3.1367803447011364,0.06286948850077165
3.17015034836817,-0.015733377961190613
3.2035203520352034,-0.03756511485581
3.236890355702237,-0.020560332373350528
3.2702603593692703,0.003918932715150665
3.3036303630363033,0.002734834776647802
3.3370003667033368,-0.04802158189966908
3.3703703703703702,-0.15521411976976493
3.4037403740374037,-0.3056442339467241
3.4371103777044367,-0.4687620449117914
3.47048038137147,-0.6049600401684876
3.5038503850385037,-0.6775093935710156
3.537220388705537,-0.6643463170821994
3.5705903923725706,-0.5653075511035226
3.6039603960396036,-0.40190799389565784
3.637330399706637,-0.20988581123610725
3.6707004033736705,-0.027833295509807704
3.704070407040704,0.11350382952948689
3.7374404107077375,0.19783368967651957
3.7708104143747705,0.22492803335242956
3.804180418041804,0.20836180945686128
3.8375504217088374,0.17093275468112307
3.870920425375871,0.13859638674795816
3.904290429042904,0.13333207672267933
3.9376604327099374,0.1660999029391099
3.971030436376971,0.23232243131924227
4.004400440044004,0.3125603477812943
4.037770443711038,0.3792621653099701
4.071140447378071,0.4073304599520021
4.104510451045105,0.3837728515771842
4.137880454712137,0.31178220249596517
4.171250458379171,0.20749027377181287
4.204620462046204,0.09165694886686873
4.237990465713238,-0.018861395495736785
4.271360469380271,-0.11544792549490765
4.304730473047305,-0.19639404971840732
4.338100476714338,-0.26185140042847344
4.3714704803813715,-0.3088724715198862
4.404840484048405,-0.3298316908342843
4.438210487715438,-0.3152693949622397
4.471580491382471,-0.2596298536696077
4.5049504950495045,-0.16679349801864113
4.538320498716538,-0.052343384780398086
4.571690502383571,0.05907527292758104
4.605060506050605,0.1408866045206074
4.638430509717638,0.17387468288227706
4.671800513384672,0.15410841954202942
4.705170517051705,0.09592492516822511
4.738540520718738,0.02776051306844003
4.771910524385771,-0.018688410431883472
4.805280528052805,-0.022246410663192308
4.838650531719838,0.01705730910322869
4.872020535386872,0.07621819562912886
4.905390539053905,0.11880184140557745
4.938760542720939,0.1127082324205055
4.972130546387972,0.048128035361238795
5.005500550055006,-0.05377753473897624
5.038870553722038,-0.1474466187029262
5.072240557389072,-0.183409243680509
5.105610561056105,-0.13374188745902918
5.138980564723139,-0.00973015395702047
5.172350568390172,0.1383856653895073
5.2057205720572055,0.24136265255612896
5.239090575724239,0.2423186793701748
5.272460579391272,0.12475954770750505
5.305830583058306,-0.07663909275938965
5.3392005867253385,-0.2884182117265611
5.372570590392372,-0.42869467779228787
5.405940594059405,-0.4417000516188599
5.439310597726439,-0.3208747015211136
5.472680601393472,-0.1105532308503604
5.506050605060506,0.11356463608221172
5.539420608727539,0.2753976565793631
5.572790612394573,0.32679566056038983
5.606160616061606,0.2616941298603587
5.63953061972864,0.11238418967423984
5.672900623395672,-0.06737630920261213
5.706270627062706,-0.22292386012996204
5.739640630729739,-0.3142083948066928
5.773010634396773,-0.3223543646706279
5.806380638063806,-0.2486410038602032
5.83975064173084,-0.10995975353140788
5.873120645397873,0.0659623432211952
5.9064906490649065,0.24494462101767206
5.93986065273194,0.3917304853226501
5.9732306563989725,0.47746598940118873
6.006600660066006,0.48806498349664224
6.0399706637330395,0.4298118720503998
6.073340667400073,0.3281982372737429
6.106710671067106,0.2186047592476662
6.14008067473414,0.13184481043100815
6.173450678401173,0.08112793676856798
6.206820682068207,0.0572020007600964
6.24019068573524,0.03467179065470372
6.273560689402273,-0.01338276134308499
6.306930693069306,-0.10000717617663298
6.34030069673634,-0.21631376165295038
6.373670700403373,-0.33499228438350936
6.407040704070407,-0.42344267302382116
6.44041070773744,-0.4596164241295363
6.473780711404474,-0.44251609869689235
6.507150715071507,-0.39228772345468577
6.540520718738541,-0.34004228789757796
6.573890722405573,-0.31225038856155873
6.607260726072607,-0.31679771500523196
6.64063072973964,-0.33702745833102293
6.6740007334066735,-0.33693453925503314
6.707370737073707,-0.2762541066644879
6.7407407407407405,-0.1298665792620718
6.774110744407774,0.0967103818867288
6.807480748074807,0.3634742878221049
6.840850751741841,0.6072528569298256
6.8742207554088735,0.7649768874781111
6.907590759075907,0.7994042278463697
6.94096076274294,0.7152918787698903
6.974330766409974,0.5573008465662682
7.007700770077007,0.3891916925452668
7.041070773744041,0.26347656133916475
7.074440777411074,0.19659094798546176
7.107810781078108,0.1629890683635482
7.141180784745141,0.11224766069990437
7.174550788412174,0.0007463559082351455
7.207920792079207,-0.1792036519398705
7.241290795746241,-0.3893351403039734
7.274660799413274,-0.5609760085287377
7.308030803080308,-0.6285512488102817
7.341400806747341,-0.5633189092258413
7.3747708104143745,-0.3892846274615556
7.408140814081408,-0.17280840849427886
7.4415108177484415,0.008505259584382143
7.474880821415475,0.10124695869146261
7.5082508250825075,0.09786750434321222
7.541620828749541,0.03445342533693622
7.5749908324165744,-0.03256476752724187
7.608360836083608,-0.05732147892704578
7.641730839750641,-0.026796104747842983
7.675100843417675,0.03594183264042262
7.708470847084708,0.0873557931209986
7.741840850751742,0.08839508792573746
7.775210854418775,0.025625699132658563
7.808580858085808,-0.08141734564761856
7.841950861752841,-0.1890550647063283
7.875320865419875,-0.2491546343242561
7.908690869086908,-0.23014414982701048
7.942060872753942,-0.13043348210744724
7.975430876420975,0.020391524098250007
8.008800880088009,0.1719201360340437
8.042170883755041,0.2702189740393703
8.075540887422076,0.2760463527387677
8.108910891089108,0.17858609749650342
8.142280894756142,0.001014546101910592
8.175650898423175,-0.2037941274028354
8.20902090209021,-0.36699966831357783
8.242390905757242,-0.42415426287071634
8.275760909424275,-0.33690231505672436
8.309130913091309,-0.10901615072392998
8.342500916758341,0.20993040298677423
8.375870920425376,0.5367207903694918
8.409240924092408,0.7802273591986928
8.442610927759443,0.8723193786241386
8.475980931426475,0.7920580762971378
8.50935093509351,0.5728242050687535
8.542720938760542,0.28868300105755496
8.576090942427575,0.025360455285489466
8.60946094609461,-0.15172955178369593
8.642830949761642,-0.21869227840818123
8.676200953428676,-0.195295681259732
8.709570957095709,-0.12913373066241032
8.742940960762743,-0.071270044277622
8.776310964429776,-0.0557910375795772
8.80968096809681,-0.0919414568798265
8.843050971763843,-0.1695407859114589
8.876420975430875,-0.27101509829244425
8.90979097909791,-0.38089571821452867
8.943160982764942,-0.48717737997805677
8.976530986431976,-0.5758379297109025
9.009900990099009,-0.6253505462034954
9.043270993766043,-0.6083984288045343
9.076640997433076,-0.5029123651666558
9.11001100110011,-0.30736568039172923
9.143381004767143,-0.05085059793787944
9.176751008434175,0.2100125170120684
9.21012101210121,0.4084603241258958
9.243491015768242,0.49230608840413187
9.276861019435277,0.4444871973404576
9.31023102310231,0.28956033205443504
9.343601026769344,0.08311705872082657
9.376971030436376,-0.110572224025616
9.41034103410341,-0.24191944389243122
9.443711037770443,-0.28974985721017943
9.477081041437476,-0.2602851311993808
9.51045104510451,-0.17422277651117649
9.543821048771543,-0.05095000135775561
9.577191052438577,0.10003886681783614
9.61056105610561,0.2753529565870736
9.643931059772644,0.4646836047777241
9.677301063439677,0.6386074895162319
9.710671067106711,0.748257795013257
9.744041070773743,0.7415723513853686
9.777411074440776,0.590291037763797
9.81078107810781,0.313372536067033
9.844151081774843,-0.018281608998736557
9.877521085441877,-0.30254963337276464
9.91089108910891,-0.4456148963267216
9.944261092775944,-0.40263573787603796
9.977631096442977,-0.19967621959893464
10.011001100110011,0.07479972568450226
10.044371103777044,0.30604435014681924
10.077741107444076,0.4005261503998585
10.11111111111111,0.32314240343561706
10.144481114778143,0.1076736262691545
10.177851118445178,-0.16289350608296765
10.21122112211221,-0.3952839095404958
10.244591125779245,-0.5249483669098524
10.277961129446277,-0.5376173948077108
10.311331133113312,-0.46580152165401656
10.344701136780344,-0.3652874809959743
10.378071140447377,-0.28543483924306257
10.411441144114411,-0.24807163166765214
10.444811147781444,-0.24354564743936397
10.478181151448478,-0.2430604307394845
10.51155115511551,-0.21879211817228614
10.544921158782545,-0.16073589441347536
10.578291162449577,-0.08214284267733786
10.611661166116612,-0.011700481502249243
10.645031169783644,0.022849780085327846
10.678401173450677,0.010999380054939696
10.711771177117711,-0.032785671293633134
10.745141180784744,-0.07405214861274186
10.778511184451778,-0.07385605208436588
10.81188118811881,-0.007115095317498406
10.845251191785845,0.12538422873646074
10.878621195452878,0.2971545541919091
10.911991199119912,0.46764088879174504
10.945361202786945,0.5986715717983875
10.978731206453979,0.6672387459140728
11.012101210121012,0.6692669774998509
11.045471213788044,0.6148241717830188
11.078841217455079,0.5197648798322697
11.112211221122111,0.39934778814083977
11.145581224789145,0.2662097149876743
11.178951228456178,0.1310632733120163
11.212321232123212,0.0027924580793394107
11.245691235790245,-0.11364962003722774
11.27906123945728,-0.21973617749142088
11.312431243124312,-0.3225663010680983
11.345801246791344,-0.4287621130237578
11.379171250458379,-0.5354383020186013
11.412541254125411,-0.6243463198059993
11.445911257792446,-0.6650087211253993
11.479281261459478,-0.6277156542871594
11.512651265126513,-0.500560867513551
11.546021268793545,-0.300831546716968
11.57939127246058,-0.07303772363505401
11.612761276127612,0.12711055400124183
11.646131279794645,0.25551960768320414
11.67950128346168,0.29795846227994616
11.712871287128712,0.274527762104182
11.746241290795746,0.22823266934935132
11.779611294462779,0.20346777449765815
11.812981298129813,0.22471102296148415
11.846351301796846,0.2848170043654568
11.87972130546388,0.3472115419212508
11.913091309130913,0.3602083111920882
11.946461312797945,0.27751792914948153
11.97983131646498,0.07784066586986062
12.013201320132012,-0.22255307810881342
12.046571323799046,-0.5683610908578353
12.079941327466079,-0.876472146960138
12.113311331133113,-1.058097539502585
12.146681334800146,-1.0461211167737208
12.18005133846718,-0.8189067179605386
12.213421342134213,-0.4115134016631851
12.246791345801245,0.09123127424179957
12.28016134946828,0.578915036474362
12.313531353135312,0.9491897020882067
12.346901356802347,1.1386930763016394
12.38027136046938,1.1393774762639692
12.413641364136414,0.9938514627289563
12.447011367803446,0.7720988841104935
12.48038137147048,0.5402480750907854
12.513751375137513,0.33581831797124584
12.547121378804546,0.16070999236211647
12.58049138247158,-0.005856847871398499
12.613861386138613,-0.18282380593773506
12.647231389805647,-0.365906746849178
12.68060139347268,-0.5223069706812761
12.713971397139714,-0.6052697764496168
12.747341400806746,-0.5806715550331031
12.78071140447378,-0.45061060602906733
12.814081408140813,-0.2602804715696384
12.847451411807846,-0.08327360160772214
12.88082141547488,0.008320235260918992
12.914191419141913,-0.02483111627048834
12.947561422808947,-0.17088258844570203
12.98093142647598,-0.3692393406189094
13.014301430143014,-0.5327330402058201
13.047671433810047,-0.580583360904244
13.081041437477081,-0.4694116516206377
13.114411441144114,-0.2107248166929117
13.147781444811146,0.1315428274846873
13.18115144847818,0.46260359182258487
13.214521452145213,0.6897568463469859
13.247891455812248,0.754657668952023
13.28126145947928,0.652892545574974
13.314631463146315,0.4334633042757207
13.348001466813347,0.1784798513522505
13.381371470480381,-0.028856329661012398
13.414741474147414,-0.135262404294724
13.448111477814447,-0.13516399068735074
13.481481481481481,-0.0685169613173002
13.514851485148514,-9.473188881005593e-05
13.548221488815548,0.010794342399507433
13.58159149248258,-0.06261894169395696
13.614961496149615,-0.20205878690601967
13.648331499816647,-0.3515809400807981
13.681701503483682,-0.4418915145969335
13.715071507150714,-0.42148041442109757
13.748441510817747,-0.28125033654780707
13.781811514484781,-0.061605656991420114
13.815181518151814,0.16193356524979374
13.848551521818848,0.3093409618333455
13.88192152548588,0.3302571880862718
13.915291529152915,0.2268472415522649
13.948661532819948,0.054770669564073754
13.982031536486982,-0.09904300730951536
14.015401540154015,-0.1528998453680743
14.048771543821047,-0.06567117800086422
14.082141547488082,0.1443185544961192
14.115511551155114,0.4051860452624065
14.148881554822148,0.6198760322792288
14.182251558489181,0.7050811451189084
14.215621562156215,0.6242632845562742
14.248991565823248,0.40103711051982427
14.282361569490282,0.10782226352103869
14.315731573157315,-0.1646145575036026
14.349101576824348,-0.34312705641497715
14.382471580491382,-0.39832413436543496
14.415841584158414,-0.3506194090867731
14.449211587825449,-0.25531424760661964
14.482581591492481,-0.17504380270712955
14.515951595159516,-0.15277211208493444
14.549321598826548,-0.19706471366499045
14.582691602493583,-0.2846911870167606
14.616061606160615,-0.3771560523367209
14.649431609827648,-0.4415443319824344
14.682801613494682,-0.4648363937942206
14.716171617161715,-0.4549324305106693
14.749541620828749,-0.42893991925891106
14.782911624495782,-0.3962506800234469
14.816281628162816,-0.34705485234160216
14.849651631829849,-0.25435671778598584
14.883021635496883,-0.09017624028524507
14.916391639163916,0.15196225482185594
14.94976164283095,0.4411890514028846
14.983131646497982,0.7111542135445975
15.016501650165015,0.8820695881070816
15.04987165383205,0.8942560681955355
15.083241657499082,0.7369876798179295
15.116611661166116,0.45723130771202747
15.149981664833149,0.14237149983921885
15.183351668500183,-0.11554000913965733
15.216721672167216,-0.2565077954349761
15.25009167583425,-0.27221110017769923
15.283461679501283,-0.19986407199087042
15.316831683168315,-0.09572881569104925
15.35020168683535,-0.004188963289686859
15.383571690502382,0.06072244023005468
15.416941694169417,0.11300045057748219
15.45031169783645,0.1756895674605436
15.483681701503484,0.25835140358995984
15.517051705170516,0.34483295032659433
15.55042170883755,0.39815126523157135
15.583791712504583,0.37914369896839234
15.617161716171616,0.26806280813363675
15.65053171983865,0.07726110720504284
15.683901723505683,-0.15155574305907285
15.717271727172717,-0.3637289402821302
15.75064173083975,-0.5132243906343067
15.784011734506784,-0.5790466103627705
15.817381738173816,-0.569519148790064
15.85075174184085,-0.5138252055043318
15.884121745507883,-0.44611589942382907
15.917491749174916,-0.39018636908175475
15.95086175284195,-0.3513802163916158
15.984231756508983,-0.3182628412394624
16.017601760176017,-0.2720099657925916
16.05097176384305,-0.19839529692255353
16.084341767510082,-0.09663568194615312
16.117711771177117,0.018974963787068935
16.15108177484415,0.125455606695289
16.184451778511182,0.2025752329801433
16.217821782178216,0.24347503338852228
16.25119178584525,0.25825771627536526
16.284561789512285,0.26743963157923345
16.317931793179316,0.2878692683058031
16.35130179684635,0.31906118285533963
16.384671800513384,0.3392230948189079
16.41804180418042,0.3157172750633782
16.45141180784745,0.22610183376897275
16.484781811514484,0.07820969239998855
16.51815181518152,-0.08384670868647533
16.55152181884855,-0.19436585883488822
16.584891822515583,-0.1965071758958021
16.618261826182618,-0.07345543399157052
16.651631829849652,0.13711834788723065
16.685001833516683,0.35514785140622995
16.718371837183717,0.4927194296028481
16.75174184085075,0.49435048943963456
16.785111844517782,0.3623989481453063
16.818481848184817,0.15450348209521814
16.85185185185185,-0.04525280267451128
16.885221855518886,-0.16610595545775297
16.918591859185916,-0.18107033072035195
16.95196186285295,-0.11403126570342564
16.985331866519985,-0.02247451567060007
17.01870187018702,0.03289733258064026
17.05207187385405,0.015494641292948511
17.085441877521085,-0.07495337384441951
17.11881188118812,-0.20785142239259422
17.15218188485515,-0.33849455152898544
17.185551888522184,-0.4261820703803296
17.21892189218922,-0.44614345890540835
17.252291895856253,-0.39317745651187663
